Data from USB4F045381__3__11-15-22-980.txt Node

Date: Wed Apr 24 11:15:22 EDT 2024
User: dsalmieri
Spectrometer: USB4F04538
Trigger mode: 4
Integration Time (sec): 1.000000E0
Scans to average: 10
Electric dark correction enabled: true
Nonlinearity correction enabled: false
Boxcar width: 0
XAxis mode: Wavelengths
Number of Pixels in Spectrum: 3648
>>>>>Begin Spectral Data<<<<<
345.52	-1098.58
345.736	-1098.58
345.952	-1098.58
346.168	-1109.03
346.384	-1110.46
346.6	-179.25
346.816	-269.97
347.032	-176.59
347.248	399.1
347.464	-266.9
347.68	-119.24
347.896	66.51
348.112	360.19
348.328	-72.55
348.544	-80.13
348.76	88.22
348.975	250.62
349.191	-280.62
349.407	-286.56
349.623	75.72
349.839	-29.75
350.055	-207.92
350.27	-5.17
350.486	128.36
350.702	235.87
350.918	205.77
351.133	-210.38
351.349	136.96
351.565	456.65
351.781	-331.41
351.996	-46.54
352.212	216.21
352.428	-122.11
352.644	-315.03
352.859	-274.48
353.075	281.95
353.291	99.48
353.506	-184.57
353.722	-305.2
353.938	-71.53
354.153	393.16
354.369	106.65
354.584	-278.37
354.8	286.66
355.016	-330.8
355.231	-324.24
355.447	-146.89
355.662	134.5
355.878	679.46
356.093	-423.78
356.309	-57.19
356.524	-204.44
356.74	255.13
356.955	-281.24
357.171	-116.99
357.386	164.2
357.602	-220.62
357.817	-134.6
358.033	-252.36
358.248	327.01
358.464	187.13
358.679	-225.94
358.895	-395.51
359.11	-13.98
359.325	233.21
359.541	247.55
359.756	-68.25
359.972	-292.09
360.187	236.08
360.402	-250.72
360.618	-237.82
360.833	1067.76
361.048	157.85
361.264	-251.54
361.479	-106.34
361.694	29.44
361.909	214.17
362.125	-276.73
362.34	-177.61
362.555	181.19
362.77	91.29
362.986	-355.58
363.201	-269.36
363.416	181.6
363.631	12.44
363.847	-301.51
364.062	-224.3
364.277	183.65
364.492	56.27
364.707	-231.68
364.922	-413.74
365.138	243.04
365.353	328.85
365.568	-364.59
365.783	-190.92
365.998	130.81
366.213	508.46
366.428	-316.05
366.643	49.1
366.858	247.14
367.073	218.67
367.288	-197.48
367.503	-299.87
367.718	83.51
367.933	339.09
368.148	-349.43
368.363	-110.64
368.578	19.2
368.793	408.93
369.008	-191.13
369.223	-341.45
369.438	218.67
369.653	307.55
369.868	-330.39
370.083	-326.09
370.298	108.49
370.513	388.86
370.728	-10.29
370.943	-284.1
371.157	-152.01
371.372	584.44
371.587	-399
371.802	-357.63
372.017	30.46
372.232	414.66
372.446	-101.63
372.661	-322.61
372.876	172.59
373.091	208.43
373.306	-145.05
373.52	-348.62
373.735	-121.7
373.95	420.19
374.165	-177.61
374.379	-220.41
374.594	-89.96
374.809	166.04
375.023	-0.26
375.238	-295.98
375.453	228.3
375.667	-245.81
375.882	-242.74
376.097	-294.14
376.311	27.39
376.526	50.12
376.741	-311.14
376.955	101.73
377.17	481.02
377.384	677.83
377.599	-103.68
377.813	-377.49
378.028	571.13
378.242	186.11
378.457	-152.42
378.672	-401.45
378.886	54.02
379.101	-10.7
379.315	-431.76
379.53	-222.67
379.744	237.31
379.958	202.29
380.173	-219.39
380.387	-289.02
380.602	167.88
380.816	-128.46
381.031	-218.77
381.245	-207.92
381.459	186.93
381.674	3073.54
381.888	-315.03
382.103	103.58
382.317	-153.03
382.531	393.57
382.746	-168.19
382.96	-288.2
383.174	-95.69
383.388	469.96
383.603	-25.04
383.817	-382.41
384.031	106.24
384.246	439.85
384.46	-64.36
384.674	376.37
384.888	-42.44
385.103	58.32
385.317	-392.65
385.531	-89.34
385.745	433.91
385.959	286.25
386.174	-274.48
386.388	-303.56
386.602	-8.04
386.816	-117.6
387.03	-163.68
387.244	-188.26
387.458	111.56
387.672	339.09
387.887	-394.49
388.101	-365.2
388.315	293.01
388.529	114.84
388.743	-237.41
388.957	-304.99
389.171	297.11
389.385	-201.98
389.599	-242.12
389.813	-31.59
390.027	192.25
390.241	624.58
390.455	-217.34
390.669	-170.03
390.883	-76.65
391.097	461.36
391.311	1.79
391.525	-250.11
391.738	234.85
391.952	197.78
392.166	-109.41
392.38	-353.33
392.594	274.58
392.808	263.93
393.022	-158.56
393.236	-222.26
393.449	181.19
393.663	216.62
393.877	-355.17
394.091	-173.51
394.305	48.28
394.518	-109.62
394.732	-353.53
394.946	-215.09
395.16	467.5
395.373	101.94
395.587	-322.81
395.801	-265.88
396.015	295.68
396.228	170.95
396.442	-360.08
396.656	-453.88
396.869	313.29
397.083	475.49
397.297	-154.67
397.51	-228.19
397.724	307.35
397.938	131.02
398.151	-410.67
398.365	-388.76
398.578	205.56
398.792	351.18
399.005	-63.33
399.219	-215.09
399.433	141.05
399.646	230.96
399.86	-36.3
400.073	-17.46
400.287	197.58
400.5	1.18
400.714	-44.7
400.927	-149.96
401.141	254.72
401.354	1196.78
401.567	194.3
401.781	-352.71
401.994	201.06
402.208	582.19
402.421	-205.26
402.635	-233.52
402.848	-31.18
403.061	297.11
403.275	-137.27
403.488	-303.15
403.701	446.2
403.915	285.64
404.128	-26.67
404.341	-230.24
404.555	269.46
404.768	-43.67
404.981	-46.54
405.195	-271.41
405.408	413.43
405.621	244.68
405.834	-28.52
406.048	-344.72
406.261	383.94
406.474	404.22
406.687	-300.9
406.9	-111.87
407.114	76.75
407.327	239.36
407.54	-399.41
407.753	-404.32
407.966	-162.25
408.179	166.86
408.392	-289.63
408.605	-437.5
408.819	146.79
409.032	221.54
409.245	-261.99
409.458	-21.76
409.671	181.6
409.884	266.39
410.097	-397.77
410.31	-61.08
410.523	239.36
410.736	-27.7
410.949	-155.08
411.162	-220.21
411.375	336.23
411.588	233.01
411.801	-61.08
412.014	-235.77
412.227	0.97
412.44	-17.66
412.653	-234.54
412.865	-57.39
413.078	290.56
413.291	212.12
413.504	-162.05
413.717	-325.88
413.93	283.18
414.143	-123.34
414.356	-177
414.568	-403.09
414.781	288.3
414.994	176.48
415.207	-153.65
415.42	-171.67
415.632	219.08
415.845	516.86
416.058	-385.89
416.271	-331.41
416.483	93.34
416.696	484.7
416.909	-243.55
417.121	-299.46
417.334	109.72
417.547	455.42
417.759	-311.96
417.972	-281.03
418.185	-73.37
418.397	219.08
418.61	-263.01
418.823	-276.32
419.035	410.36
419.248	79
419.46	-188.26
419.673	-135.83
419.885	103.78
420.098	32.31
420.311	-261.99
420.523	-455.52
420.736	195.53
420.948	54.63
421.161	-264.03
421.373	-436.47
421.586	-42.44
421.798	-127.23
422.01	-409.85
422.223	-112.48
422.435	-109
422.648	291.17
422.86	-270.18
423.073	-257.48
423.285	218.26
423.497	-299.67
423.71	-289.43
423.922	-278.78
424.134	331.92
424.347	475.28
424.559	-52.27
424.771	65.48
424.984	-1.69
425.196	238.95
425.408	-417.63
425.621	-365.82
425.833	317.18
426.045	359.78
426.257	-339.4
426.47	-208.33
426.682	78.59
426.894	135.11
427.106	-256.87
427.318	-160
427.531	-117.2
427.743	175.05
427.955	-218.57
428.167	273.76
428.379	135.73
428.591	-17.46
428.804	-173.1
429.016	-309.29
429.228	-10.7
429.44	167.27
429.652	-41.22
429.864	-376.67
430.076	5.48
430.288	-3.94
430.5	-213.24
430.712	-137.27
430.924	280.93
431.136	143.51
431.348	-379.74
431.56	-266.9
431.772	-4.56
431.984	-68.45
432.196	-299.26
432.408	-255.02
432.62	-28.31
432.832	170.75
433.044	45.21
433.256	-119.45
433.468	194.3
433.679	-274.68
433.891	-343.29
434.103	-15
434.315	240.18
434.527	237.51
434.739	-135.22
434.95	-231.88
435.162	247.75
435.374	-111.87
435.586	-181.5
435.798	-232.5
436.009	-194.2
436.221	-50.84
436.433	-242.33
436.645	-211.61
436.856	-53.3
437.068	343.8
437.28	-282.67
437.491	65.89
437.703	268.23
437.915	175.05
438.126	-225.74
438.338	60.16
438.55	25.96
438.761	166.86
438.973	-183.96
439.184	-182.93
439.396	61.18
439.608	260.86
439.819	-289.02
440.031	-92.82
440.242	285.44
440.454	262.09
440.665	-174.33
440.877	-69.48
441.088	248.78
441.3	39.07
441.511	-335.3
441.723	-240.48
441.934	166.04
442.146	149.66
442.357	-53.5
442.569	125.49
442.78	181.4
442.991	571.95
443.203	184.27
443.414	-272.64
443.626	530.58
443.837	-11.11
444.048	-259.73
444.26	-362.13
444.471	225.63
444.682	301.21
444.894	-329.16
445.105	-324.24
445.316	380.26
445.528	296.49
445.739	-54.12
445.95	-84.63
446.161	211.5
446.373	363.46
446.584	-114.94
446.795	-140.95
447.006	365.92
447.217	501.5
447.429	-304.58
447.64	-257.48
447.851	516.04
448.062	218.88
448.273	-309.29
448.484	-210.17
448.695	323.53
448.907	241.4
449.118	-45.11
449.329	97.43
449.54	56.47
449.751	-25.24
449.962	-146.69
450.173	-173.92
450.384	424.49
450.595	473.03
450.806	-169.42
451.017	-143
451.228	477.94
451.439	414.25
451.65	-119.65
451.861	-371.55
452.072	-38.55
452.283	143.51
452.494	19.4
452.705	-218.57
452.915	545.32
453.126	234.85
453.337	-86.07
453.548	-228.19
453.759	416.51
453.97	597.34
454.181	110.95
454.391	-158.56
454.602	236.08
454.813	311.44
455.024	-127.64
455.235	-224.51
455.445	311.24
455.656	234.65
455.867	-22.78
456.078	-197.07
456.288	55.24
456.499	327.83
456.71	-289.84
456.921	62
457.131	225.43
457.342	166.24
457.553	-150.17
457.763	-195.22
457.974	230.55
458.184	340.73
458.395	-302.13
458.606	-214.68
458.816	427.77
459.027	540.61
459.237	-41.62
459.448	-363.98
459.659	408.93
459.869	747.25
460.08	-363.77
460.29	-84.02
460.501	533.04
460.711	16.33
460.922	-359.67
461.132	-261.17
461.343	803.16
461.553	-160.41
461.764	-247.45
461.974	-226.76
462.184	331.51
462.395	249.8
462.605	-157.74
462.816	-292.09
463.026	193.07
463.236	371.45
463.447	-285.95
463.657	-238.64
463.867	359.78
464.078	28.83
464.288	-162.25
464.498	-232.09
464.709	144.94
464.919	126.51
465.129	-154.47
465.339	-288.61
465.55	232.19
465.76	370.43
465.97	-202.39
466.18	-238.64
466.391	329.67
466.601	204.34
466.811	-166.76
467.021	-342.27
467.231	220.52
467.441	397.25
467.651	-195.84
467.862	-477.84
468.072	96.61
468.282	347.9
468.492	-266.08
468.702	-150.37
468.912	81.66
469.122	756.06
469.332	58.32
469.542	-300.28
469.752	351.59
469.962	152.52
470.172	-298.85
470.382	-309.5
470.592	299.57
470.802	339.3
471.012	-81.77
471.222	-255.43
471.432	297.52
471.642	305.3
471.852	-114.53
472.062	-314.21
472.272	79.21
472.482	-161.64
472.691	-322.4
472.901	-349.03
473.111	109.52
473.321	620.69
473.531	-331.82
473.741	-132.15
473.95	249.19
474.16	300.8
474.37	-113.1
474.58	-355.17
474.79	558.23
474.999	314.31
475.209	-292.71
475.419	-232.7
475.628	15.31
475.838	433.09
476.048	-185.39
476.258	-357.22
476.467	394.18
476.677	-9.88
476.886	-11.72
477.096	-140.95
477.306	-7.83
477.515	428.59
477.725	-130.51
477.935	-155.29
478.144	514.6
478.354	5.07
478.563	-204.64
478.773	-298.65
478.982	321.48
479.192	375.96
479.401	-130.3
479.611	-277.35
479.82	-94.46
480.03	205.36
480.239	-304.58
480.449	-348.82
480.658	508.87
480.868	-10.5
481.077	-133.58
481.287	-199.93
481.496	227.48
481.705	507.03
481.915	49.3
482.124	34.15
482.333	252.87
482.543	563.55
482.752	-97.53
482.961	-262.4
483.171	295.27
483.38	102.96
483.589	-124.16
483.799	-253.79
484.008	102.76
484.217	279.7
484.426	-187.24
484.636	-306.22
484.845	406.88
485.054	-173.1
485.263	140.85
485.472	-162.05
485.682	505.39
485.891	209.87
486.1	-329.36
486.309	-237.41
486.518	331.92
486.727	529.55
486.936	-264.85
487.146	-57.8
487.355	501.09
487.564	-48.59
487.773	-163.07
487.982	-201.16
488.191	54.63
488.4	220.11
488.609	-171.67
488.818	-165.73
489.027	662.47
489.236	562.73
489.445	-120.06
489.654	-252.36
489.863	452.96
490.072	170.95
490.281	236.08
490.49	-118.63
490.698	575.84
490.907	601.03
491.116	-145.25
491.325	-289.43
491.534	529.76
491.743	203.72
491.952	-65.18
492.16	-133.78
492.369	358.34
492.578	451.73
492.787	-59.44
492.996	-45.11
493.204	72.45
493.413	650.79
493.622	-321.17
493.831	-313.6
494.039	689.09
494.248	-16.43
494.457	-170.44
494.665	-292.71
494.874	390.09
495.083	738.45
495.291	-176.18
495.5	-202.19
495.709	439.65
495.917	276.42
496.126	-18.89
496.335	-186.83
496.543	157.44
496.752	363.67
496.96	129.99
497.169	-279.6
497.377	250.42
497.586	466.68
497.794	-13.98
498.003	-303.36
498.211	235.26
498.42	568.46
498.628	-28.31
498.837	-195.43
499.045	372.06
499.254	289.94
499.462	-112.08
499.671	-153.24
499.879	765.27
500.087	546.96
500.296	-203.21
500.504	-69.07
500.713	320.25
500.921	740.49
501.129	-129.48
501.338	-107.36
501.546	374.93
501.754	291.58
501.962	-65.59
502.171	-184.16
502.379	415.69
502.587	656.94
502.795	-15.82
503.004	-59.03
503.212	362.85
503.42	572.97
503.628	-81.97
503.837	44.18
504.045	461.36
504.253	725.34
504.461	-110.64
504.669	-253.38
504.877	494.94
505.085	626.42
505.294	-216.73
505.502	160.1
505.71	377.39
505.918	470.37
506.126	-166.96
506.334	-111.87
506.542	282.57
506.75	415.48
506.958	85.76
507.166	-14.8
507.374	204.54
507.582	712.64
507.79	50.33
507.998	-99.38
508.206	500.68
508.414	457.06
508.622	-74.6
508.83	1.18
509.037	493.3
509.245	225.23
509.453	-124.77
509.661	-157.54
509.869	491.87
510.077	256.56
510.285	72.45
510.492	-320.35
510.7	851.7
510.908	246.73
511.116	-9.88
511.324	-74.6
511.531	225.23
511.739	416.1
511.947	136.55
512.155	247.96
512.362	427.77
512.57	81.87
512.778	-77.67
512.985	-218.57
513.193	544.91
513.401	715.71
513.608	-2.3
513.816	-65.18
514.024	470.16
514.231	618.23
514.439	-37.94
514.646	-9.06
514.854	578.09
515.061	605.12
515.269	-3.53
515.477	-18.07
515.684	148.43
515.892	623.96
516.099	-153.44
516.307	-156.72
516.514	531.4
516.722	779.41
516.929	-4.97
517.136	-136.65
517.344	693.6
517.551	462.18
517.759	-58.42
517.966	9.98
518.173	255.13
518.381	353.22
518.588	92.93
518.796	-90.98
519.003	575.63
519.21	415.07
519.418	-5.17
519.625	304.89
519.832	379.85
520.039	492.49
520.247	-187.44
520.454	2.82
520.661	633.59
520.868	517.47
521.076	-36.1
521.283	54.02
521.49	967.82
521.697	464.43
521.904	78.59
522.112	3.64
522.319	606.56
522.526	511.74
522.733	-49.82
522.94	-15.41
523.147	429.82
523.354	569.28
523.561	-128.87
523.768	106.24
523.975	668.61
524.183	381.49
524.39	172.8
524.597	-101.02
524.804	437.39
525.011	226.04
525.218	-14.59
525.425	-24.83
525.632	726.77
525.838	244.68
526.045	-18.89
526.252	29.03
526.459	1309.01
526.666	1327.24
526.873	8.76
527.08	-3.94
527.287	745.2
527.494	653.46
527.701	-112.48
527.907	-58.01
528.114	537.95
528.321	395.41
528.528	39.07
528.735	-28.31
528.941	271.92
529.148	280.73
529.355	86.78
529.562	-5.79
529.768	729.03
529.975	335.41
530.182	71.01
530.388	-7.83
530.595	668.82
530.802	163.99
531.008	171.36
531.215	54.63
531.422	1136.78
531.628	1148.86
531.835	113.41
532.042	105.01
532.248	285.23
532.455	479.99
532.661	77.77
532.868	-2.71
533.074	490.64
533.281	671.27
533.487	37.43
533.694	20.63
533.9	238.74
534.107	569.9
534.313	-2.3
534.52	-78.08
534.726	634.41
534.933	926.86
535.139	-30.36
535.345	-64.56
535.552	567.85
535.758	429.2
535.965	98.05
536.171	10.6
536.377	607.38
536.584	815.25
536.79	46.03
536.996	128.15
537.203	514.19
537.409	638.92
537.615	45.21
537.821	15.72
538.028	638.71
538.234	631.54
538.44	64.66
538.646	133.27
538.853	537.13
539.059	404.22
539.265	489.41
539.471	-137.47
539.677	682.74
539.883	320.05
540.09	12.03
540.296	413.84
540.502	434.53
540.708	291.17
540.914	278.68
541.12	70.81
541.326	614.54
541.532	449.89
541.738	161.74
541.944	135.73
542.15	733.33
542.356	428.18
542.562	-22.58
542.768	135.32
542.974	969.46
543.18	972.12
543.386	50.12
543.592	-64.36
543.798	841.25
544.004	773.67
544.21	54.02
544.415	183.86
544.621	611.47
544.827	780.22
545.033	-15.21
545.239	347.69
545.445	249.6
545.651	555.56
545.856	64.66
546.062	85.14
546.268	391.52
546.474	535.49
546.679	124.47
546.885	166.65
547.091	324.35
547.297	969.25
547.502	207.41
547.708	-2.1
547.914	321.28
548.119	726.16
548.325	15.31
548.531	16.54
548.736	916.01
548.942	340.53
549.147	97.84
549.353	340.32
549.559	764.25
549.764	607.38
549.97	110.33
550.175	113.41
550.381	694.42
550.586	398.89
550.792	162.97
550.997	128.77
551.203	661.65
551.408	716.74
551.614	34.97
551.819	76.13
552.025	928.91
552.23	864.81
552.435	48.9
552.641	266.59
552.846	337.86
553.052	827.33
553.257	294.45
553.462	128.77
553.668	374.93
553.873	769.99
554.078	81.05
554.283	83.1
554.489	618.44
554.694	517.06
554.899	32.1
555.105	293.01
555.31	679.26
555.515	742.95
555.72	230.96
555.925	595.09
556.131	749.91
556.336	426.54
556.541	93.95
556.746	33.13
556.951	862.55
557.156	871.36
557.361	260.66
557.567	282.98
557.772	1007.96
557.977	728
558.182	140.03
558.387	142.9
558.592	401.15
558.797	908.02
559.002	191.02
559.207	271.3
559.412	574.61
559.617	1016.36
559.822	148.22
560.027	76.34
560.232	613.52
560.437	763.64
560.642	9.16
560.847	106.85
561.051	574.2
561.256	629.49
561.461	197.78
561.666	47.05
561.871	572.77
562.076	757.29
562.281	211.91
562.485	72.24
562.69	748.07
562.895	762.82
563.1	194.71
563.305	122.42
563.509	831.83
563.714	1050.15
563.919	177.1
564.123	164.61
564.328	534.06
564.533	887.13
564.737	244.27
564.942	152.11
565.147	917.64
565.351	990.35
565.556	299.16
565.761	292.19
565.965	692.57
566.17	416.71
566.374	231.78
566.579	88.42
566.784	666.56
566.988	488.8
567.193	59.75
567.397	235.06
567.602	306.73
567.806	611.27
568.011	196.76
568.215	238.13
568.42	555.15
568.624	594.06
568.828	213.76
569.033	376.16
569.237	811.35
569.442	761.79
569.646	84.94
569.85	207
570.055	550.65
570.259	661.44
570.463	446.2
570.668	243.86
570.872	576.04
571.076	541.02
571.281	372.27
571.485	328.24
571.689	666.56
571.893	809.51
572.098	385.38
572.302	223.18
572.506	761.79
572.71	690.93
572.914	270.08
573.119	228.09
573.323	983.79
573.527	940.17
573.731	237.72
573.935	184.88
574.139	685.2
574.343	503.54
574.547	240.79
574.751	364.08
574.955	909.86
575.159	910.27
575.364	265.78
575.568	178.94
575.772	630.93
575.976	866.24
576.18	225.84
576.383	175.87
576.587	926.86
576.791	796.2
576.995	93.95
577.199	100.3
577.403	805.62
577.607	899.42
577.811	135.93
578.015	363.05
578.219	766.3
578.422	860.71
578.626	331.31
578.83	489.21
579.034	938.94
579.238	708.75
579.442	230.96
579.645	654.27
579.849	656.73
580.053	736.4
580.257	313.29
580.46	338.07
580.664	919.08
580.868	826.92
581.071	508.46
581.275	438.01
581.479	385.38
581.682	895.73
581.886	292.6
582.09	393.16
582.293	884.47
582.497	933
582.7	503.95
582.904	278.47
583.107	714.49
583.311	625.81
583.515	364.28
583.718	395.21
583.922	867.06
584.125	1207.84
584.329	261.68
584.532	478.15
584.735	1080.25
584.939	844.12
585.142	201.47
585.346	261.47
585.549	784.94
585.753	608.81
585.956	344.42
586.159	515.83
586.363	1119.37
586.566	840.64
586.769	279.7
586.973	252.87
587.176	871.36
587.379	959.63
587.582	664.11
587.786	581.78
587.989	750.94
588.192	1449.09
588.395	451.94
588.599	691.75
588.802	858.05
589.005	923.38
589.208	386.81
589.411	388.65
589.615	964.95
589.818	1175.28
590.021	625.81
590.224	506.41
590.427	999.97
590.63	939.76
590.833	234.65
591.036	344.62
591.239	689.7
591.442	651.61
591.645	620.48
591.848	394.8
592.051	836.54
592.254	1016.36
592.457	454.6
592.66	456.24
592.863	728.62
593.066	938.53
593.269	411.59
593.472	502.32
593.675	590.38
593.878	959.42
594.081	542.66
594.284	295.68
594.486	937.51
594.689	830.81
594.892	512.15
595.095	500.06
595.298	972.73
595.5	669.63
595.703	515.01
595.906	572.15
596.109	1121.01
596.311	1014.1
596.514	195.94
596.717	523.41
596.92	1102.98
597.122	968.84
597.325	258.61
597.528	370.02
597.73	1138.21
597.933	883.24
598.136	438.21
598.338	201.88
598.541	969.87
598.743	1139.03
598.946	514.4
599.148	475.69
599.351	1113.84
599.554	1034.38
599.756	610.45
599.959	496.58
600.161	1082.3
600.363	1383.35
600.566	712.03
600.768	435.96
600.971	1174.66
601.173	1050.76
601.376	478.15
601.578	502.52
601.78	936.48
601.983	1432.5
602.185	441.9
602.388	691.14
602.59	993.01
602.792	764.66
602.995	588.54
603.197	541.84
603.399	1118.55
603.601	996.7
603.804	541.84
604.006	486.75
604.208	800.29
604.41	434.53
604.613	710.8
604.815	430.64
605.017	1334.61
605.219	705.27
605.421	971.3
605.623	520.75
605.826	1216.24
606.028	1314.13
606.23	532.42
606.432	534.06
606.634	1229.75
606.836	1148.65
607.038	427.16
607.24	683.97
607.442	965.57
607.644	907.61
607.846	654.89
608.048	446
608.25	1238.97
608.452	718.99
608.654	588.74
608.856	339.71
609.058	819.34
609.26	1116.3
609.462	660.01
609.664	611.88
609.866	1215.83
610.067	1127.15
610.269	729.84
610.471	582.8
610.673	814.02
610.875	1104.42
611.077	399.3
611.278	637.89
611.48	967.82
611.682	1329.49
611.884	641.37
612.085	630.93
612.287	665.95
612.489	985.02
612.69	424.29
612.892	610.45
613.094	1246.34
613.295	1032.13
613.497	461.97
613.699	591.61
613.9	1285.87
614.102	1105.03
614.304	628.47
614.505	470.78
614.707	915.39
614.908	985.84
615.11	445.59
615.311	672.71
615.513	1143.94
615.714	1104.62
615.916	506.62
616.117	632.16
616.319	919.28
616.52	1173.64
616.722	560.89
616.923	536.31
617.124	1300.2
617.326	1126.13
617.527	762.61
617.729	846.58
617.93	1129.61
618.131	1158.48
618.333	603.49
618.534	684.18
618.735	910.07
618.937	1320.48
619.138	529.35
619.339	500.88
619.54	1093.97
619.742	917.23
619.943	774.9
620.144	678.44
620.345	1232.21
620.546	1197.19
620.748	574.2
620.949	717.97
621.15	1202.11
621.351	1047.08
621.552	591.61
621.753	465.45
621.954	643.42
622.155	1524.05
622.356	533.85
622.558	817.29
622.759	1029.67
622.96	1475.31
623.161	701.17
623.362	656.32
623.563	970.48
623.764	1074.93
623.965	651.82
624.166	837.77
624.366	921.13
624.567	1109.95
624.768	379.85
624.969	608.2
625.17	940.58
625.371	1117.12
625.572	793.13
625.773	584.44
625.973	1196.17
626.174	1236.31
626.375	753.81
626.576	744.59
626.777	1169.95
626.977	1539.82
627.178	794.56
627.379	775.92
627.58	964.54
627.78	1057.52
627.981	734.56
628.182	799.48
628.382	1256.58
628.583	639.12
628.784	532.01
628.984	858.46
629.185	1199.85
629.386	1246.34
629.586	762
629.787	613.73
629.987	1198.22
630.188	1043.59
630.388	664.51
630.589	816.88
630.79	1616.41
630.99	1047.28
631.191	741.52
631.391	800.91
631.591	1183.06
631.792	1424.11
631.992	854.16
632.193	721.24
632.393	1453.19
632.594	1063.25
632.794	694.21
632.994	833.47
633.195	1014.1
633.395	1028.23
633.595	641.58
633.796	907.4
633.996	947.75
634.196	1368.2
634.397	566.83
634.597	793.54
634.797	877.5
634.997	1456.46
635.198	950.82
635.398	637.89
635.598	1167.29
635.798	1341.37
635.998	1150.09
636.199	645.06
636.399	916.01
636.599	827.53
636.799	700.76
636.999	1070.63
637.199	1194.94
637.399	1369.84
637.599	679.46
637.799	899.01
637.999	955.53
638.199	1431.89
638.399	725.34
638.599	729.03
638.799	1265.39
638.999	1507.87
639.199	960.45
639.399	804.8
639.599	1398.3
639.799	855.18
639.999	670.25
640.199	682.54
640.399	1157.46
640.599	1237.95
640.799	865.42
640.998	1019.02
641.198	1357.75
641.398	1234.26
641.598	897.37
641.798	836.34
641.997	2090.52
642.197	1090.29
642.397	944.27
642.597	733.33
642.796	1243.89
642.996	1319.05
643.196	986.25
643.395	681.92
643.595	1177.74
643.795	745
643.994	795.18
644.194	861.73
644.394	1352.84
644.593	1317.41
644.793	663.29
644.992	933.21
645.192	1293.24
645.392	736.6
645.591	966.18
645.791	854.98
645.99	1383.35
646.19	1077.18
646.389	833.06
646.589	876.27
646.788	1278.29
646.987	1277.68
647.187	1112.41
647.386	1095.82
647.586	1157.67
647.785	1453.39
647.984	824.26
648.184	967
648.383	976.01
648.582	1055.27
648.782	830.4
648.981	1009.39
649.18	978.67
649.38	1148.04
649.579	888.77
649.778	793.13
649.977	1388.47
650.177	1266
650.376	792.31
650.575	777.15
650.774	1520.77
650.973	1329.08
651.173	728.41
651.372	960.04
651.571	1221.97
651.77	1451.34
651.969	894.09
652.168	1015.74
652.367	933.21
652.566	1159.51
652.765	876.07
652.964	1275.01
653.163	1668.84
653.362	1162.17
653.561	882.42
653.76	890
653.959	1183.88
654.158	1362.46
654.357	1182.45
654.556	894.71
654.755	1379.87
654.954	1400.15
655.153	933.21
655.352	1014.1
655.551	1521.79
655.749	1093.77
655.948	1023.73
656.147	1055.06
656.346	1341.98
656.545	1175.89
656.743	1009.19
656.942	1036.02
657.141	1250.03
657.34	1053.01
657.538	957.78
657.737	958.6
657.936	1206.2
658.135	1311.88
658.333	954.92
658.532	1116.5
658.731	1677.64
658.929	1492.92
659.128	1293.45
659.326	864.4
659.525	1553.54
659.724	1259.24
659.922	735.99
660.121	842.89
660.319	1346.69
660.518	1046.67
660.716	923.17
660.915	875.46
661.113	1619.89
661.312	958.19
661.51	1102.58
661.709	849.45
661.907	1437.62
662.105	1607.6
662.304	935.26
662.502	1020.04
662.701	1550.26
662.899	1226.48
663.097	1390.93
663.296	870.13
663.494	1526.5
663.692	1657.98
663.891	912.52
664.089	854.98
664.287	1401.78
664.485	1619.89
664.684	935.87
664.882	1108.51
665.08	1309.42
665.278	1324.57
665.476	894.5
665.675	1322.53
665.873	1753.42
666.071	1572.38
666.269	968.23
666.467	1309.62
666.665	1415.3
666.863	1327.03
667.061	1158.48
667.259	992.19
667.457	1317.41
667.655	1560.3
667.853	891.63
668.051	1218.29
668.249	1156.23
668.447	1802.78
668.645	942.63
668.843	1283.21
669.041	1525.07
669.239	1245.11
669.437	1170.77
669.635	1217.06
669.833	1281.36
670.031	1506.64
670.229	1201.08
670.426	1156.23
670.624	1276.65
670.822	1193.91
671.02	999.56
671.218	1151.11
671.415	1139.03
671.613	1421.44
671.811	1258.63
672.009	1083.94
672.206	1549.85
672.404	1334.2
672.602	1378.03
672.799	1208.86
672.997	1528.35
673.195	1590.61
673.392	1209.89
673.59	950
673.788	1561.52
673.985	902.69
674.183	1240.4
674.38	1063.46
674.578	1618.46
674.775	1226.68
674.973	1013.69
675.17	980.93
675.368	1712.46
675.565	1672.93
675.763	1114.45
675.96	1051.38
676.158	1667.4
676.355	1374.96
676.553	1028.03
676.75	1149.47
676.947	1389.5
677.145	1327.65
677.342	1271.33
677.539	1277.27
677.737	1546.57
677.934	1914.8
678.131	1316.38
678.329	1061.62
678.526	1927.29
678.723	1603.51
678.92	1251.87
679.118	1196.37
679.315	1154.59
679.512	1786.19
679.709	1193.71
679.906	1203.95
680.104	1768.78
680.301	1463.02
680.498	1043.39
680.695	1080.66
680.892	1295.9
681.089	1322.53
681.286	1290.99
681.483	969.66
681.68	1561.93
681.877	1618.87
682.075	1207.43
682.272	1351.2
682.469	1623.58
682.665	1390.52
682.862	1064.28
683.059	971.91
683.256	1505.41
683.453	1520.36
683.65	1289.55
683.847	1225.66
684.044	1485.14
684.241	1219.92
684.438	1321.3
684.635	1031.1
684.831	1928.32
685.028	1952.69
685.225	1135.34
685.422	1412.84
685.619	1451.75
685.815	1454.62
686.012	1255.15
686.209	1216.03
686.405	1200.67
686.602	1634.02
686.799	1082.91
686.996	1086.6
687.192	1302.25
687.389	2038.29
687.586	1151.32
687.782	1188.59
687.979	1916.85
688.175	1760.79
688.372	1265.8
688.568	1251.67
688.765	1430.45
688.962	1785.37
689.158	1374.14
689.355	1050.35
689.551	1668.22
689.748	1386.83
689.944	1326.01
690.14	1115.07
690.337	1686.25
690.533	1524.46
690.73	1434.96
690.926	1293.04
691.123	1674.57
691.319	1518.93
691.515	1112.82
691.712	1472.44
691.908	1641.4
692.104	1589.58
692.301	1410.59
692.497	1107.29
692.693	1741.75
692.889	1636.07
693.086	1458.92
693.282	1093.36
693.478	1558.86
693.674	1976.85
693.87	1319.86
694.067	1128.58
694.263	1584.26
694.459	1465.07
694.655	1509.1
694.851	1383.97
695.047	1767.35
695.243	1749.73
695.439	1459.74
695.635	1251.67
695.831	1746.46
696.027	1527.32
696.224	1223.2
696.42	1736.01
696.615	1920.53
696.811	1773.69
697.007	1126.95
697.203	1274.4
697.399	1714.92
697.595	1800.73
697.791	1228.53
697.987	1445
698.183	1358.78
698.379	1421.85
698.575	1331.54
698.77	1414.07
698.966	1793.76
699.162	1924.83
699.358	1352.02
699.554	1394.62
699.749	1844.55
699.945	1815.47
700.141	1519.95
700.337	1416.53
700.532	1532.24
700.728	1408.13
700.924	1227.3
701.119	1137.39
701.315	1803.59
701.511	1572.58
701.706	1449.71
701.902	1153.16
702.097	1700.58
702.293	1757.72
702.489	1402.81
702.684	1307.78
702.88	1668.84
703.075	1573.4
703.271	1426.56
703.466	1244.7
703.662	1579.75
703.857	1676.83
704.053	1273.79
704.248	1365.74
704.443	1898.21
704.639	1806.67
704.834	1466.09
705.03	1345.87
705.225	1807.28
705.42	1954.94
705.616	1541.25
705.811	1265.39
706.006	1591.63
706.202	1584.87
706.397	1554.56
706.592	1218.08
706.787	1804.41
706.983	1657.78
707.178	1721.27
707.373	1503.57
707.568	1864.62
707.763	1958.01
707.959	1316.59
708.154	1340.75
708.349	1763.25
708.544	1843.53
708.739	1652.66
708.934	1309.62
709.129	1928.93
709.324	2018.43
709.519	1370.24
709.714	1337.27
709.909	1938.97
710.104	1679.69
710.299	1446.63
710.494	1483.5
710.689	1843.12
710.884	1715.74
711.079	1525.48
711.274	1593.06
711.469	1928.73
711.664	1861.76
711.859	1496.81
712.054	1569.51
712.249	1905.99
712.443	1989.55
712.638	1299.79
712.833	1388.47
713.028	1746.05
713.223	1696.08
713.417	1776.77
713.612	1385.4
713.807	2004.09
714.002	2448.3
714.196	1690.96
714.391	1465.07
714.586	1964.36
714.78	1813.63
714.975	1473.46
715.17	1497.42
715.364	1709.59
715.559	2045.87
715.754	1215.21
715.948	1345.26
716.143	2288.55
716.337	1826.53
716.532	1816.09
716.726	1500.09
716.921	2001.84
717.115	2220.97
717.31	1384.17
717.504	2222.4
717.699	1751.78
717.893	2008.8
718.088	1414.89
718.282	1337.27
718.476	1838.62
718.671	2012.49
718.865	1514.01
719.059	1500.5
719.254	1803.8
719.448	2216.67
719.642	3157.71
719.837	1309.01
720.031	2038.7
720.225	2079.05
720.419	1597.57
720.614	1456.67
720.808	1996.1
721.002	1810.97
721.196	1479.81
721.39	1550.06
721.585	2133.11
721.779	2027.23
721.973	1637.3
722.167	1392.57
722.361	1940.6
722.555	2223.02
722.749	1587.74
722.943	1545.55
723.137	1617.43
723.331	1981.77
723.525	1582.62
723.719	1553.95
723.913	2054.27
724.107	2257.22
724.301	1448.27
724.495	1613.95
724.689	2327.06
724.883	2158.51
725.077	1548.42
725.271	1502.54
725.465	2138.44
725.659	1889.2
725.853	1713.07
726.046	1417.14
726.24	1760.59
726.434	2135.78
726.628	1581.39
726.822	1639.55
727.015	2165.06
727.209	2291.83
727.403	1664.95
727.596	1422.67
727.79	2119.6
727.984	2198.03
728.177	1623.78
728.371	1689.73
728.565	2168.75
728.758	1649.59
728.952	1553.33
729.146	1538.79
729.339	2195.99
729.533	1881.83
729.726	1711.44
729.92	1517.9
730.113	2241.04
730.307	1980.33
730.5	1700.17
730.694	1546.57
730.887	1927.29
731.081	2084.17
731.274	1560.09
731.468	1690.34
731.661	1922.58
731.854	1841.48
732.048	1625.01
732.241	1510.74
732.435	1840.25
732.628	1937.33
732.821	1715.12
733.014	1576.27
733.208	1742.57
733.401	2087.85
733.594	1703.45
733.788	1623.99
733.981	2285.07
734.174	2109.77
734.367	1646.72
734.56	1832.68
734.754	2273.6
734.947	2012.28
735.14	1646.93
735.333	1734.17
735.526	2305.14
735.719	1802.37
735.912	1600.44
736.105	1656.14
736.298	2091.54
736.491	1937.94
736.684	1657.57
736.877	1675.8
737.07	2185.54
737.263	2460.79
737.456	1690.75
737.649	1584.67
737.842	1966.82
738.035	2074.75
738.228	1828.99
738.421	1876.71
738.614	2361.46
738.807	2260.7
739	1532.85
739.192	1642.42
739.385	2184.72
739.578	2200.08
739.771	2094.41
739.964	1687.27
740.156	2154.62
740.349	2057.13
740.542	2006.34
740.735	1592.86
740.927	1789.05
741.12	1842.71
741.313	1623.58
741.505	1920.74
741.698	2179.4
741.891	2210.73
742.083	1948.39
742.276	1720.45
742.468	2112.43
742.661	2052.22
742.854	1765.5
743.046	1730.48
743.239	2396.69
743.431	2143.15
743.624	1811.99
743.816	1495.99
744.009	2029.08
744.201	2154.41
744.393	2049.97
744.586	1601.05
744.778	2328.28
744.971	2108.95
745.163	1844.76
745.355	1949.41
745.548	2106.69
745.74	2074.54
745.932	1866.88
746.125	1739.9
746.317	2611.93
746.509	2197.42
746.702	1804.82
746.894	1864.62
747.086	2249.64
747.278	2357.78
747.471	2016.38
747.663	1866.06
747.855	2137.62
748.047	2546.8
748.239	1730.69
748.431	1777.59
748.623	2539.43
748.815	2433.35
749.008	1679.08
749.2	1781.89
749.392	2250.26
749.584	2341.19
749.776	1904.56
749.968	2001.02
750.16	2528.78
750.352	2066.96
750.544	1898.21
750.736	1737.45
750.928	2261.52
751.12	2296.34
751.311	1844.14
751.503	1838.62
751.695	2235.72
751.887	2178.58
752.079	1646.31
752.271	1814.04
752.463	2884.1
752.654	2327.87
752.846	1866.88
753.038	1826.53
753.23	2083.76
753.421	2283.02
753.613	1883.88
753.805	2096.45
753.997	2322.75
754.188	2418.4
754.38	1749.94
754.572	1831.86
754.763	2057.13
754.955	2262.75
755.146	1898.42
755.338	1856.02
755.53	2327.87
755.721	2115.5
755.913	1638.94
756.104	1727.21
756.296	2118.98
756.487	2390.75
756.679	1746.05
756.87	1768.98
757.062	2063.69
757.253	2302.68
757.445	1817.93
757.636	1981.15
757.827	2168.54
758.019	2807.1
758.21	1737.45
758.401	1828.17
758.593	2721.08
758.784	2545.16
758.975	1682.15
759.167	1715.33
759.358	2140.9
759.549	2452.39
759.74	1858.28
759.932	1838.21
760.123	2420.24
760.314	2045.26
760.505	1947.57
760.696	1824.07
760.888	2585.3
761.079	2135.98
761.27	1756.29
761.461	1597.57
761.652	2502.77
761.843	2085.6
762.034	1932.62
762.225	2225.48
762.416	2151.75
762.607	2146.83
762.798	1790.08
762.989	1882.65
763.18	3300.05
763.371	2112.63
763.562	1819.77
763.753	1843.74
763.944	2367.61
764.135	2341.8
764.326	2044.64
764.517	1847.01
764.708	2277.09
764.899	2325.42
765.089	1719.83
765.28	1661.67
765.471	2144.17
765.662	2323.78
765.853	1937.53
766.043	1718.6
766.234	2360.23
766.425	2346.92
766.615	1869.13
766.806	1668.84
766.997	2449.52
767.187	2231.21
767.378	1787.42
767.569	1643.03
767.759	2252.92
767.95	2108.74
768.141	2015.97
768.331	1784.14
768.522	2267.05
768.712	2349.58
768.903	1764.27
769.093	1753.62
769.284	2445.84
769.474	2240.22
769.665	1668.22
769.855	1596.14
770.046	2361.26
770.236	2088.47
770.426	2049.97
770.617	1770.01
770.807	2244.32
770.998	2155.64
771.188	2053.04
771.378	1784.55
771.569	2415.94
771.759	2261.32
771.949	1637.91
772.139	1501.93
772.33	2185.34
772.52	2307.6
772.71	1715.33
772.9	1688.09
773.09	2450.55
773.281	2588.17
773.471	1764.07
773.661	1766.73
773.851	2362.08
774.041	2095.43
774.231	1704.88
774.421	2092.77
774.611	2517.11
774.802	2126.97
774.992	1933.44
775.182	1669.25
775.372	2228.75
775.562	2398.73
775.752	1835.75
775.942	1872
776.131	2464.27
776.321	2351.22
776.511	1797.86
776.701	1724.34
776.891	2494.58
777.081	1936.71
777.271	1911.32
777.461	1765.09
777.651	2318.86
777.84	2427.82
778.03	1962.31
778.22	1777.79
778.41	2411.23
778.599	1953.92
778.789	1885.1
778.979	1730.69
779.169	2165.68
779.358	2082.53
779.548	2148.47
779.738	1631.36
779.927	2291.83
780.117	1857.66
780.307	1786.39
780.496	1494.35
780.686	2282.41
780.875	2681.35
781.065	1769.8
781.254	1763.86
781.444	2135.57
781.633	2161.78
781.823	1684.4
782.012	1713.28
782.202	2030.92
782.391	2104.03
782.581	1701.81
782.77	1989.55
782.96	2353.88
783.149	2060
783.338	1753.21
783.528	1507.87
783.717	2410.82
783.906	2450.75
784.096	1917.87
784.285	1646.11
784.474	2030.51
784.663	1959.24
784.853	1750.55
785.042	1859.5
785.231	2046.69
785.42	2283.64
785.61	1953.51
785.799	1684.4
785.988	2196.19
786.177	2057.13
786.366	1825.92
786.555	2029.9
786.744	2334.84
786.933	2120.01
787.122	1645.9
787.312	1655.32
787.501	1940.19
787.69	2285.48
787.879	1748.5
788.068	1696.69
788.257	1775.33
788.445	2001.43
788.634	1750.96
788.823	1603.3
789.012	2693.44
789.201	2515.88
789.39	1802.37
789.579	1678.05
789.768	2149.91
789.957	2128.81
790.145	1721.47
790.334	1405.26
790.523	1966.61
790.712	2028.26
790.9	1809.33
791.089	1567.26
791.278	2309.24
791.467	2171.82
791.655	2100.76
791.844	2357.98
792.033	1966.41
792.221	2144.99
792.41	1884.08
792.599	1545.35
792.787	2198.85
792.976	2263.77
793.164	1616
793.353	1740.52
793.541	2296.54
793.73	2273.4
793.918	1772.47
794.107	1744.2
794.295	2142.12
794.484	2073.52
794.672	1784.14
794.861	1740.52
795.049	2252.92
795.238	2557.04
795.426	1611.29
795.614	1809.12
795.803	2246.78
795.991	2445.02
796.179	1716.76
796.368	1709.8
796.556	2413.68
796.744	1878.55
796.932	1685.43
797.121	1662.9
797.309	2066.96
797.497	2258.65
797.685	1731.92
797.874	1646.31
798.062	1999.59
798.25	2438.87
798.438	1584.05
798.626	1750.35
798.814	2234.49
799.002	2608.24
799.19	1874.25
799.378	1840.66
799.566	2341.39
799.755	2498.06
799.943	2004.91
800.131	1738.26
800.318	2120.83
800.506	2200.29
800.694	1646.31
800.882	1877.73
801.07	2505.23
801.258	2100.14
801.446	1699.76
801.634	1790.49
801.822	2114.48
802.01	2147.65
802.197	1732.12
802.385	1952.48
802.573	2213.39
802.761	1956.58
802.949	1798.07
803.136	1572.58
803.324	2385.83
803.512	2229.57
803.699	1918.69
803.887	1557.63
804.075	2398.53
804.262	2037.06
804.45	1637.91
804.638	1944.09
804.825	1888.59
805.013	1920.94
805.201	1814.65
805.388	1673.14
805.576	2094.41
805.763	2546.39
805.951	1794.38
806.138	1954.33
806.326	2663.95
806.513	2236.95
806.701	1850.9
806.888	1793.97
807.075	2280.57
807.263	2609.47
807.45	1707.34
807.638	2021.09
807.825	2617.87
808.012	2449.32
808.2	1938.35
808.387	2179.81
808.574	2325.83
808.761	2554.38
808.949	1736.22
809.136	1895.55
809.323	2112.63
809.51	2147.04
809.698	2280.36
809.885	2060.21
810.072	2357.98
810.259	2489.05
810.446	1963.95
810.633	1826.12
810.82	2480.86
811.008	2679.51
811.195	2106.69
811.382	1968.66
811.569	2291.22
811.756	1917.46
811.943	1961.7
812.13	1876.71
812.317	2077.82
812.504	2070.24
812.691	2007.37
812.878	2022.73
813.064	2607.63
813.251	2254.76
813.438	1817.73
813.625	2076.38
813.812	2202.95
813.999	2263.77
814.186	2066.96
814.372	1897.6
814.559	2294.7
814.746	2675.62
814.933	1864.62
815.12	2108.95
815.306	2168.75
815.493	1988.32
815.68	1906.2
815.866	1924.02
816.053	2526.94
816.24	2728.87
816.426	2015.76
816.613	1785.37
816.799	2407.75
816.986	2589.2
817.173	1914.39
817.359	1833.9
817.546	2375.18
817.732	1871.38
817.919	1696.08
818.105	2075.97
818.292	2194.96
818.478	2340.78
818.665	2069.63
818.851	1837.18
819.037	2891.07
819.224	2278.31
819.41	1773.69
819.597	1820.18
819.783	2803
819.969	2414.71
820.156	1949.82
820.342	1772.26
820.528	3247.82
820.714	2159.74
820.901	2210.94
821.087	1910.09
821.273	2648.38
821.459	2193.73
821.646	1780.45
821.832	1805.03
822.018	2326.03
822.204	2233.46
822.39	1929.95
822.576	1808.71
822.762	2419.01
822.948	2329.31
823.134	2094.2
823.32	1919.1
823.507	1937.33
823.693	2378.05
823.879	2381.74
824.065	1825.1
824.25	2270.12
824.436	2011.67
824.622	1853.77
824.808	1811.99
824.994	2198.03
825.18	2120.01
825.366	1721.47
825.552	1844.14
825.738	2176.33
825.923	2482.91
826.109	2156.66
826.295	1818.75
826.481	2097.68
826.667	2106.9
826.852	2126.56
827.038	1773.69
827.224	2505.23
827.409	2629.75
827.595	1667
827.781	2057.95
827.966	2519.36
828.152	2465.91
828.338	1916.85
828.523	1630.75
828.709	2075.97
828.894	2455.67
829.08	1879.16
829.266	1787.21
829.451	2229.57
829.637	2377.23
829.822	2031.74
830.008	1841.89
830.193	2490.69
830.378	2680.54
830.564	1931.59
830.749	1762.02
830.935	2300.84
831.12	2319.68
831.305	1895.34
831.491	2003.68
831.676	1908.86
831.861	2419.83
832.047	1873.43
832.232	1705.29
832.417	2492.53
832.602	2287.73
832.788	1807.9
832.973	1764.68
833.158	2194.96
833.343	2190.46
833.528	2055.5
833.714	1993.03
833.899	2298.18
834.084	2707.57
834.269	2128.4
834.454	1855
834.639	2376.21
834.824	2179.4
835.009	1984.84
835.194	2085.4
835.379	2414.71
835.564	2695.28
835.749	2092.97
835.934	1737.86
836.119	2409.18
836.304	2261.11
836.489	1758.13
836.674	2142.33
836.859	2027.64
837.044	2566.87
837.228	1894.52
837.413	1806.87
837.598	2261.52
837.783	2440.51
837.968	1894.93
838.152	1767.76
838.337	1737.45
838.522	2578.55
838.707	2388.7
838.891	2086.62
839.076	2264.18
839.261	2360.03
839.445	1952.28
839.63	1980.54
839.815	2644.49
839.999	2081.91
840.184	1785.78
840.368	1811.17
840.553	2413.68
840.737	2305.14
840.922	1653.68
841.106	1644.47
841.291	1904.97
841.475	2236.95
841.66	1808.51
841.844	1791.72
842.029	2872.02
842.213	1832.47
842.397	1851.11
842.582	1593.68
842.766	2408.16
842.951	2369.86
843.135	1831.86
843.319	1848.04
843.504	2262.95
843.688	2459.97
843.872	1554.56
844.056	1652.66
844.241	2287.94
844.425	2077.61
844.609	2008.39
844.793	1568.28
844.977	2403.85
845.161	2228.96
845.346	1614.57
845.53	1695.26
845.714	2106.69
845.898	2559.7
846.082	1541.05
846.266	1716.97
846.45	2126.76
846.634	2183.49
846.818	1724.34
847.002	1898.42
847.186	2265.82
847.37	1807.28
847.554	1624.4
847.738	1936.71
847.922	2171.41
848.106	2163.01
848.29	1693.41
848.473	1676.42
848.657	2253.74
848.841	1986.68
849.025	1707.14
849.209	1524.25
849.392	2274.42
849.576	1950.43
849.76	1441.1
849.944	1900.26
850.127	2446.45
850.311	1794.79
850.495	1574.63
850.678	1521.79
850.862	2284.05
851.046	2388.29
851.229	2019.66
851.413	1565.83
851.596	2105.88
851.78	2007.16
851.964	1870.56
852.147	1754.85
852.331	2856.87
852.514	2392.59
852.698	1783.52
852.881	1542.48
853.065	2232.03
853.248	2008.39
853.431	1836.77
853.615	1792.95
853.798	2686.88
853.982	2167.93
854.165	1901.08
854.348	1661.06
854.532	1714.71
854.715	1888.79
854.898	1690.14
855.081	1695.46
855.265	2405.49
855.448	2529.19
855.631	1584.46
855.814	1663.51
855.997	2268.07
856.181	2006.75
856.364	1748.3
856.547	1498.45
856.73	2122.87
856.913	2087.85
857.096	1528.96
857.279	1741.95
857.462	1918.28
857.645	2264.18
857.828	1849.26
858.011	1834.31
858.194	1873.84
858.377	2153.59
858.56	1518.11
858.743	1663.31
858.926	1769.6
859.109	2108.74
859.292	1588.56
859.475	1461.99
859.658	2245.34
859.841	2175.1
860.023	1521.38
860.206	1468.75
860.389	2000.61
860.572	2231.21
860.755	1644.88
860.937	1660.44
861.12	1893.09
861.303	1959.04
861.486	1665.77
861.668	1639.14
861.851	2012.9
862.034	2059.59
862.216	1782.3
862.399	1411
862.581	2099.12
862.764	2298.18
862.947	1666.79
863.129	1459.33
863.312	1668.63
863.494	2267.46
863.677	1968.25
863.859	1325.8
864.042	2158.3
864.224	2121.03
864.406	1714.1
864.589	1370.86
864.771	1985.04
864.954	1673.75
865.136	1574.22
865.318	1279.93
865.501	2194.14
865.683	1428.41
865.865	1525.07
866.048	1536.13
866.23	2072.08
866.412	1894.52
866.594	1371.27
866.777	1672.93
866.959	2017.2
867.141	1716.15
867.323	1850.7
867.505	1690.96
867.687	1873.84
867.869	1933.85
868.052	1516.47
868.234	1426.15
868.416	1848.65
868.598	2085.6
868.78	1519.95
868.962	1397.89
869.144	2165.47
869.326	2045.66
869.508	1492.71
869.69	1376.39
869.872	1660.65
870.054	2221.18
870.236	1303.48
870.417	1410.18
870.599	1856.43
870.781	2301.05
870.963	1730.89
871.145	1429.64
871.327	1607.19
871.508	2105.06
871.69	1539.41
871.872	1562.55
872.054	1818.75
872.235	1970.3
872.417	1632.79
872.599	1366.76
872.78	2386.04
872.962	1921.76
873.144	1298.57
873.325	1552.72
873.507	2238.17
873.689	1856.84
873.87	1392.36
874.052	1670.89
874.233	1849.67
874.415	2237.56
874.596	1610.47
874.778	1380.69
874.959	1961.08
875.141	2198.44
875.322	1524.87
875.503	1431.07
875.685	2013.72
875.866	1458.72
876.048	1484.52
876.229	1413.66
876.41	1820.8
876.592	2049.56
876.773	1570.74
876.954	1375.16
877.136	2256.61
877.317	1739.9
877.498	1349.15
877.679	1606.99
877.86	2026.41
878.042	1902.31
878.223	1498.86
878.404	1947.57
878.585	2100.35
878.766	2446.45
878.947	1898.83
879.128	1744.2
879.309	2070.24
879.49	2242.06
879.672	1688.29
879.853	1634.23
880.034	1768.57
880.215	1895.55
880.396	1644.67
880.576	1548.42
880.757	1754.85
880.938	2340.37
881.119	1459.54
881.3	1508.07
881.481	1820.59
881.662	2816.11
881.843	1441.72
882.023	1418.99
882.204	2114.68
882.385	1926.06
882.566	1543.5
882.747	1542.68
882.927	1898.21
883.108	2012.28
883.289	1515.86
883.469	1805.44
883.65	1865.03
883.831	1973.78
884.011	1857.25
884.192	1556.41
884.373	2208.07
884.553	2025.19
884.734	1805.44
884.914	2013.51
885.095	2904.58
885.275	2356.14
885.456	1930.57
885.636	1475.51
885.817	1876.71
885.997	2002.86
886.178	1527.12
886.358	1693.82
886.538	2013.1
886.719	3228.98
886.899	1601.26
887.08	1711.44
887.26	2294.9
887.44	1688.5
887.621	1512.17
887.801	1780.45
887.981	2539.02
888.161	2221.99
888.342	1711.44
888.522	1694.85
888.702	2278.31
888.882	2350.4
889.062	1770.01
889.242	1376.39
889.423	2431.3
889.603	2189.43
889.783	1750.96
889.963	1635.66
890.143	2156.87
890.323	2304.94
890.503	1628.29
890.683	1701.81
890.863	2016.38
891.043	2054.47
891.223	1743.18
891.403	1926.47
891.583	2018.22
891.763	2103.42
891.943	1763.86
892.122	1677.44
892.302	2048.94
892.482	1988.53
892.662	1854.79
892.842	1793.15
893.022	2122.05
893.201	1979.52
893.381	1826.12
893.561	1630.75
893.741	2272.99
893.92	2046.07
894.1	1857.87
894.28	1816.91
894.459	2309.85
894.639	2093.18
894.819	1697.1
894.998	1811.17
895.178	2167.93
895.357	2126.97
895.537	1684.61
895.716	1511.55
895.896	2026.41
896.075	2439.28
896.255	1740.52
896.434	1447.86
896.614	2401.81
896.793	2340.57
896.973	1915.82
897.152	1822.23
897.331	2097.68
897.511	2218.92
897.69	1474.08
897.87	1839.43
898.049	2181.85
898.228	2053.65
898.407	1930.77
898.587	1857.87
898.766	1820.18
898.945	2220.77
899.124	2046.69
899.304	1796.84
899.483	2242.27
899.662	2530.62
899.841	1646.93
900.02	1630.75
900.199	2314.36
900.378	2115.5
900.557	1660.24
900.737	1588.76
900.916	2115.09
901.095	2177.35
901.274	2016.17
901.453	1518.11
901.632	1804.82
901.811	1824.89
901.989	1648.36
902.168	1580.57
902.347	2237.56
902.526	1911.93
902.705	1670.89
902.884	1837.18
903.063	2439.49
903.242	2311.9
903.42	1584.67
903.599	1824.69
903.778	2240.84
903.957	2442.77
904.135	1856.43
904.314	1741.13
904.493	2079.05
904.672	2073.93
904.85	1762.02
905.029	1630.54
905.207	2099.73
905.386	2652.68
905.565	1455.85
905.743	1644.26
905.922	1928.73
906.1	2134.96
906.279	1467.93
906.457	1576.48
906.636	1873.84
906.814	1891.45
906.993	1659.62
907.171	1534.49
907.35	2104.85
907.528	2248.41
907.707	1922.17
907.885	1466.5
908.063	2336.48
908.242	1777.18
908.42	1604.53
908.598	1331.13
908.777	2162.81
908.955	1760.79
909.133	1783.32
909.311	1455.24
909.49	1820.8
909.668	1861.14
909.846	1561.32
910.024	1328.88
910.202	1924.22
910.38	2033.58
910.559	1435.57
910.737	1477.35
910.915	1969.69
911.093	1984.02
911.271	1559.68
911.449	1744.61
911.627	1998.97
911.805	2508.51
911.983	1545.96
912.161	1469.78
912.339	1885.31
912.517	2233.67
912.695	1699.56
912.872	1585.28
913.05	1733.35
913.228	1955.55
913.406	1566.64
913.584	1449.3
913.762	2085.6
913.939	1768.37
914.117	1458.72
914.295	1408.75
914.473	1915.82
914.65	1960.47
914.828	1492.71
915.006	1464.86
915.184	1579.34
915.361	1938.15
915.539	1666.18
915.716	1730.07
915.894	1910.7
916.072	2017.4
916.249	1874.86
916.427	1651.64
916.604	1569.51
916.782	2025.8
916.959	1389.7
917.137	1476.74
917.314	1861.14
917.492	1875.07
917.669	1597.36
917.847	1545.96
918.024	1845.78
918.201	1551.08
918.379	1499.06
918.556	1500.09
918.733	1960.88
918.911	1647.33
919.088	1717.78
919.265	1396.25
919.442	1846.6
919.62	1814.04
919.797	1392.57
919.974	1289.96
920.151	1887.77
920.328	1773.69
920.506	1411.61
920.683	2014.54
920.86	1480.63
921.037	1593.06
921.214	1484.32
921.391	1340.96
921.568	1896.16
921.745	1523.84
921.922	1445.61
922.099	1369.02
922.276	1917.05
922.453	1731.3
922.63	1291.4
922.807	1736.01
922.984	1752.19
923.161	1519.95
923.338	1397.07
923.514	1306.55
923.691	1729.87
923.868	1826.12
924.045	1335.43
924.222	1262.32
924.399	1734.17
924.575	1887.56
924.752	1406.49
924.929	1453.6
925.105	1668.43
925.282	1418.78
925.459	1426.36
925.635	1397.28
925.812	1724.75
925.989	1473.67
926.165	1464.45
926.342	1119.78
926.518	1392.77
926.695	1591.63
926.871	1270.71
927.048	1172.41
927.224	1855.2
927.401	1465.27
927.577	1410.38
927.754	1096.23
927.93	1857.87
928.107	1809.12
928.283	1189
928.459	1400.15
928.636	1724.95
928.812	1526.5
928.988	1196.78
929.165	1073.08
929.341	1497.22
929.517	1618.05
929.693	1646.52
929.87	1032.13
930.046	1742.36
930.222	1422.67
930.398	1145.17
930.574	1394.82
930.751	1496.6
930.927	1400.55
931.103	1254.94
931.279	1284.84
931.455	1321.3
931.631	1620.51
931.807	1011.65
931.983	1052.81
932.159	1134.32
932.335	1550.26
932.511	1174.46
932.687	1148.45
932.863	1532.03
933.039	1574.22
933.215	1029.26
933.391	997.31
933.566	1444.18
933.742	1508.89
933.918	1138.41
934.094	967.2
934.27	1516.47
934.445	1482.06
934.621	1330.72
934.797	1093.36
934.973	1603.92
935.148	1432.3
935.324	1008.98
935.5	888.15
935.675	1701.2
935.851	1520.98
936.027	1263.96
936.202	1197.81
936.378	1621.74
936.553	1401.58
936.729	1721.68
936.904	1106.26
937.08	1185.31
937.255	1264.16
937.431	1091.93
937.606	997.92
937.782	1292.63
937.957	1507.05
938.133	1214.6
938.308	1043.18
938.483	1401.99
938.659	1178.35
938.834	1256.58
939.009	1002.63
939.185	1394
939.36	1160.74
939.535	732.3
939.71	1238.77
939.886	1696.08
940.061	1478.58
940.236	1376.59
940.411	1162.38
940.586	1507.46
940.761	1540.43
940.937	1210.3
941.112	1005.09
941.287	1357.96
941.462	1351.81
941.637	943.86
941.812	1104.01
941.987	1397.28
942.162	1317.41
942.337	1206.2
942.512	1053.63
942.687	1667.2
942.862	1464.45
943.037	848.22
943.212	691.55
943.386	1236.51
943.561	1349.77
943.736	1202.72
943.911	1413.66
944.086	1484.11
944.26	1345.26
944.435	1000.79
944.61	1168.31
944.785	1465.07
944.959	1783.32
945.134	1055.47
945.309	889.59
945.483	1052.4
945.658	1508.48
945.833	665.33
946.007	778.18
946.182	1657.17
946.357	1009.39
946.531	892.25
946.706	902.9
946.88	844.33
947.055	1325.8
947.229	932.59
947.404	773.26
947.578	1404.24
947.752	1178.96
947.927	760.77
948.101	698.1
948.276	1508.48
948.45	1273.99
948.624	1150.29
948.799	828.35
948.973	1260.88
949.147	851.29
949.321	885.08
949.496	882.01
949.67	1512.78
949.844	1089.88
950.018	886.51
950.193	843.71
950.367	1741.34
950.541	1058.13
950.715	923.38
950.889	1023.11
951.063	1056.91
951.237	1282.59
951.411	630.72
951.585	630.52
951.759	1232.42
951.933	1134.52
952.107	756.47
952.281	1003.66
952.455	1469.57
952.629	1266.41
952.803	762
952.977	777.56
953.151	1281.16
953.325	1089.47
953.499	946.72
953.672	568.46
953.846	883.85
954.02	1022.09
954.194	715.1
954.368	692.37
954.541	1272.35
954.715	962.08
954.889	833.06
955.062	615.98
955.236	966.59
955.41	972.32
955.583	940.79
955.757	518.9
955.93	953.48
956.104	760.15
956.278	689.5
956.451	758.52
956.625	1140.46
956.798	1427.79
956.972	1031.51
957.145	616.8
957.319	1113.43
957.492	972.53
957.665	914.57
957.839	613.52
958.012	1103.19
958.185	821.39
958.359	742.34
958.532	913.96
958.705	1118.14
958.879	981.54
959.052	809.31
959.225	468.73
959.398	972.73
959.572	1057.72
959.745	614.13
959.918	684.58
960.091	909.86
960.264	1142.51
960.438	563.96
960.611	549.21
960.784	1204.15
960.957	816.27
961.13	1105.24
961.303	604.51
961.476	939.35
961.649	1265.59
961.822	547.58
961.995	762.2
962.168	957.17
962.341	1047.89
962.514	639.12
962.686	601.85
962.859	984.41
963.032	1087.22
963.205	639.12
963.378	405.24
963.551	1016.97
963.723	848.42
963.896	729.84
964.069	824.26
964.242	912.11
964.414	1230.78
964.587	647.31
964.76	726.36
964.932	969.25
965.105	855.59
965.278	625.81
965.45	524.23
965.623	954.51
965.795	1056.29
965.968	607.58
966.14	596.52
966.313	836.95
966.485	913.55
966.658	545.94
966.83	494.94
967.003	1127.15
967.175	1027.82
967.348	555.15
967.52	588.74
967.692	1312.29
967.865	1070.22
968.037	576.25
968.209	848.01
968.382	892.25
968.554	1066.74
968.726	588.13
968.898	482.25
969.071	972.94
969.243	985.84
969.415	597.34
969.587	692.57
969.759	1289.15
969.932	957.99
970.104	601.23
970.276	250.82
970.448	704.04
970.62	741.93
970.792	692.98
970.964	613.52
971.136	1299.38
971.308	937.71
971.48	414.66
971.652	484.09
971.824	1185.93
971.996	721.24
972.168	580.14
972.339	584.03
972.511	992.39
972.683	764.05
972.855	808.9
973.027	491.46
973.199	870.54
973.37	1023.52
973.542	666.15
973.714	722.06
973.886	694.82
974.057	1024.34
974.229	438.42
974.401	455.21
974.572	575.63
974.744	413.23
974.915	384.56
975.087	447.43
975.259	1144.15
975.43	627.04
975.602	407.7
975.773	390.5
975.945	610.86
976.116	965.57
976.288	412.61
976.459	698.51
976.63	659.39
976.802	823.44
976.973	387.83
977.145	663.49
977.316	1312.9
977.487	852.72
977.659	624.37
977.83	518.9
978.001	1121.42
978.172	840.64
978.344	362.64
978.515	483.27
978.686	631.95
978.857	1102.78
979.028	452.35
979.2	357.52
979.371	1034.38
979.542	719.2
979.713	605.94
979.884	29.03
980.055	578.91
980.226	664.51
980.397	393.77
980.568	277.24
980.739	954.51
980.91	644.44
981.081	598.98
981.252	385.79
981.423	741.72
981.594	824.05
981.765	311.65
981.936	531.6
982.106	698.92
982.277	1006.12
982.448	313.49
982.619	599.59
982.79	526.48
982.96	865.83
983.131	562.12
983.302	124.67
983.472	597.96
983.643	764.05
983.814	486.75
983.984	362.03
984.155	622.94
984.326	896.14
984.496	515.22
984.667	370.63
984.837	426.75
985.008	1019.63
985.178	701.58
985.349	402.99
985.519	618.03
985.69	465.45
985.86	396.85
986.031	297.72
986.201	729.44
986.371	774.7
986.542	209.25
986.712	114.02
986.882	707.52
987.053	721.86
987.223	241.4
987.393	565.19
987.563	499.24
987.734	788.01
987.904	723.29
988.074	274.38
988.244	674.34
988.414	533.04
988.585	259.43
988.755	457.47
988.925	585.26
989.095	1036.02
989.265	223.38
989.435	402.37
989.605	776.33
989.775	767.12
989.945	634.2
990.115	163.99
990.285	582.6
990.455	679.06
990.625	424.9
990.795	216.62
990.965	916.41
991.134	395.82
991.304	219.9
991.474	219.49
991.644	670.66
991.814	981.95
991.984	85.76
992.153	195.33
992.323	481.63
992.493	625.81
992.662	57.29
992.832	421.83
993.002	559.45
993.171	693.8
993.341	51.76
993.511	226.86
993.68	410.57
993.85	730.25
994.019	50.94
994.189	83.71
994.358	562.12
994.528	427.36
994.697	-70.09
994.867	97.23
995.036	724.72
995.206	429
995.375	140.03
995.544	421.63
995.714	738.65
995.883	457.06
996.052	421.83
996.222	-99.58
996.391	964.54
996.56	585.46
996.73	129.99
996.899	44.8
997.068	848.42
997.237	537.95
997.406	93.34
997.576	131.22
997.745	701.58
997.914	535.49
998.083	-95.08
998.252	129.59
998.421	542.87
998.59	314.31
998.759	37.84
998.928	-103.06
999.097	805.62
999.266	562.32
999.435	321.89
999.604	-129.07
999.773	898.39
999.942	410.57
1000.111	-108.8
1000.28	-119.04
1000.448	263.11
1000.617	231.37
1000.786	318.41
1000.955	-44.08
1001.124	644.03
1001.292	1132.89
1001.461	85.96
1001.63	15.31
1001.798	787.8
1001.967	726.98
1002.136	-29.34
1002.304	0.36
1002.473	486.14
1002.642	456.65
1002.81	108.29
1002.979	113.41
1003.147	677.83
1003.316	918.67
1003.484	46.85
1003.653	3.23
1003.821	689.5
1003.99	365.51
1004.158	231.57
1004.327	172.18
1004.495	558.63
1004.663	288.71
1004.832	220.31
1005	-87.09
1005.168	548.19
1005.337	456.03
1005.505	-164.3
1005.673	261.27
1005.842	572.77
1006.01	474.26
1006.178	-90.16
1006.346	21.04
1006.514	475.28
1006.683	841.87
1006.851	4.86
1007.019	177.3
1007.187	165.63
1007.355	-76.85
1007.523	-216.73
1007.691	-141.98
1007.859	84.12
1008.027	804.8
1008.195	-26.88
1008.363	-149.96
1008.531	482.66
1008.699	338.68
1008.867	-209.56
1009.035	-50.23
1009.203	740.08
1009.37	389.27
1009.538	14.28
1009.706	517.06
1009.874	402.58
1010.042	379.85
1010.209	-171.26
1010.377	-123.13
1010.545	576.25
1010.713	424.49
1010.88	-85.45
1011.048	-10.91
1011.216	314.93
1011.383	726.77
1011.551	-67.02
1011.718	-164.09
1011.886	593.25
1012.054	409.13
1012.221	-127.03
1012.389	-137.67
1012.556	346.06
1012.724	783.91
1012.891	78.18
1013.058	-282.88
1013.226	508.25
1013.393	553.11
1013.561	-204.85
1013.728	-230.45
1013.895	623.56
1014.063	491.67
1014.23	-226.15
1014.397	-81.56
1014.565	557.61
1014.732	263.93
1014.899	-167.17
1015.066	-185.8
1015.233	432.48
1015.401	513.37
1015.568	-35.28
1015.735	70.4
1015.902	426.34
1016.069	661.44
1016.236	-51.46
1016.403	-212.43
1016.57	112.18
1016.737	621.71
1016.904	-85.45
1017.071	-219.39
1017.238	154.57
1017.405	481.22
1017.572	-74.19
1017.739	156
1017.906	559.25
1018.073	598.77
1018.24	-196.45
1018.407	-19.51
1018.573	549.21
1018.74	287.69
1018.907	-53.5
1019.074	-304.58
1019.241	554.13
1019.407	354.66
1019.574	-189.69
1019.741	-232.09
1019.907	491.46
1020.074	719.81
1020.241	-387.94
1020.407	-229.22
1020.574	360.39
1020.74	410.57
1020.907	-139.52
1021.073	-183.34
1021.24	900.03
1021.406	592.43
1021.573	-224.71
1021.739	-134.19
1021.906	563.35
1022.072	274.99
1022.239	-119.24
1022.405	-77.87
1022.571	360.8
1022.738	162.76
1022.904	-140.34
1023.07	-21.96
1023.237	322.3
1023.403	566.42
1023.569	-127.84
1023.735	-87.91
1023.902	408.72
1024.068	394.59
1024.234	-285.13
1024.4	-171.88
1024.566	323.32
1024.732	453.78
1024.898	-165.94
1025.065	-348
1025.231	438.62
1025.397	172.39
1025.563	-109.41
1025.729	-237.41
1025.895	-141.16
1026.061	39.27
1026.227	-365.2
1026.392	-112.28
1026.558	520.95
1026.724	398.48
1026.89	-200.75
1027.056	-61.49
1027.222	335.82
1027.388	188.36
1027.553	-116.99
1027.719	-272.84
1027.885	709.37
1028.051	368.17
1028.216	-409.24
1028.382	-141.36
1028.548	425.11
1028.713	178.94
1028.879	-317.9
1029.045	-12.75
1029.21	618.23
1029.376	519.93
1029.541	-129.89
1029.707	-138.49
1029.873	481.22
1030.038	521.77
1030.204	-198.09
1030.369	-162.25
1030.534	442.92
1030.7	168.29
1030.865	-117.4
1031.031	-238.03
1031.196	363.05
1031.361	304.48
1031.527	-209.97
1031.692	-222.26
1031.857	-130.3
1032.023	432.68
1032.188	-253.79
1032.353	-169.42
1032.518	584.64
1032.684	310.83
1032.849	-348.82
1033.014	-136.24
1033.179	362.03
1033.344	384.56
1033.509	-86.68
1033.674	-181.71
1033.839	443.74
1034.004	399.3
1034.17	-144.64
1034.335	-332.03
1034.5	188.77
1034.664	120.16
1034.829	-251.13
1034.994	-124.98
1035.159	231.78
1035.324	342.57
1035.489	-160.82
1035.654	-247.86
1035.819	654.48
1035.984	317.59
1036.148	-110.44
1036.313	-158.97
1036.478	490.23
1036.643	251.03
1036.807	-216.11
1036.972	-279.39
1037.137	687.66
1037.301	253.9
1037.466	-404.32
1037.631	-100.81
1037.795	467.7
1037.96	272.53
1038.124	42.14
1038.289	-300.28
1038.454	355.68
1038.618	407.29
1038.783	-120.47
1038.947	-114.12
1039.111	262.09
1039.276	195.53
1039.44	-216.52
1039.605	342.37
1039.769	184.88
1039.933	236.28
1040.098	-136.45
1040.262	54.22
1040.426	486.96
1040.591	402.99
1040.755	-247.86
1040.919	-147.5
1041.083	428.18
1041.248	221.13
1041.412	-374.22
1041.576	-269.15
1041.74	219.7
1041.904	393.57
1042.068	-264.65
1042.232	-152.01
1042.397	505.18
1042.561	322.5
1042.725	-446.71
1042.889	-4.15
1043.053	417.53
1043.217	316.36
1043.381	-112.48
1043.544	-345.75
1043.708	436.58
1043.872	-13.98
1044.036	-442.21
1044.2	-320.56
1044.364	507.85
1044.528	577.68
1044.691	3043.03
1044.855	-302.33
1045.019	433.5
1045.183	410.77
1045.346	-132.76
1045.51	-342.47
1045.674	398.07
1045.837	404.42
1046.001	-211.61
1046.165	-212.22
1046.328	786.16
1046.492	290.15
1046.655	-4.56
1046.819	-126.41
1046.983	165.22
1047.146	296.49
1047.31	-101.02
1047.473	-407.6
1047.636	254.31
1047.8	54.02
1047.963	-163.07
1048.127	-306.63
1048.29	57.09
