Data from USB4F045381__1__11-13-12-990.txt Node

Date: Wed Apr 24 11:13:12 EDT 2024
User: dsalmieri
Spectrometer: USB4F04538
Trigger mode: 4
Integration Time (sec): 1.000000E0
Scans to average: 10
Electric dark correction enabled: true
Nonlinearity correction enabled: false
Boxcar width: 0
XAxis mode: Wavelengths
Number of Pixels in Spectrum: 3648
>>>>>Begin Spectral Data<<<<<
345.52	-1113.94
345.736	-1113.94
345.952	-1113.94
346.168	-1106.57
346.384	-1112.92
346.6	-153.03
346.816	-253.18
347.032	-174.95
347.248	392.75
347.464	-274.89
347.68	-158.77
347.896	94.97
348.112	357.73
348.328	-121.91
348.544	-64.36
348.76	83.3
348.975	272.33
349.191	-255.23
349.407	-268.54
349.623	72.24
349.839	-47.97
350.055	-195.43
350.27	-31.59
350.486	151.5
350.702	248.16
350.918	232.8
351.133	-181.09
351.349	135.11
351.565	437.19
351.781	-304.99
351.996	-15.21
352.212	200.85
352.428	-105.11
352.644	-281.24
352.859	-260.14
353.075	267.21
353.291	113.41
353.506	-195.43
353.722	-326.5
353.938	-57.8
354.153	442.72
354.369	90.26
354.584	-260.96
354.8	281.54
355.016	-303.36
355.231	-329.36
355.447	-122.31
355.662	133.07
355.878	752.99
356.093	-430.12
356.309	-65.38
356.524	-196.45
356.74	271.92
356.955	-305.2
357.171	-58.83
357.386	175.66
357.602	-216.93
357.817	-153.85
358.033	-236.8
358.248	326.19
358.464	220.31
358.679	-219.18
358.895	-362.75
359.11	-13.57
359.325	244.07
359.541	251.03
359.756	-64.15
359.972	-288
360.187	236.69
360.402	-235.57
360.618	-204.44
360.833	1079.64
361.048	141.87
361.264	-220.21
361.479	-92.41
361.694	1.18
361.909	207.61
362.125	-264.65
362.34	-187.03
362.555	196.96
362.77	106.65
362.986	-345.34
363.201	-227.79
363.416	183.45
363.631	22.07
363.847	-276.94
364.062	-213.04
364.277	169.93
364.492	45.62
364.707	-223.07
364.922	-402.68
365.138	229.53
365.353	325.58
365.568	-353.94
365.783	-226.15
365.998	110.74
366.213	537.54
366.428	-306.02
366.643	29.64
366.858	222.36
367.073	211.5
367.288	-189.9
367.503	-278.17
367.718	110.13
367.933	318.2
368.148	-350.46
368.363	-128.25
368.578	27.6
368.793	416.71
369.008	-192.56
369.223	-299.46
369.438	233.01
369.653	318.61
369.868	-325.88
370.083	-332.03
370.298	106.85
370.513	399.51
370.728	-12.54
370.943	-241.51
371.157	-169.01
371.372	557
371.587	-354.96
371.802	-340.22
372.017	52.17
372.232	417.32
372.446	-129.28
372.661	-320.97
372.876	200.04
373.091	194.3
373.306	-162.05
373.52	-340.42
373.735	-113.92
373.95	456.03
374.165	-206.69
374.379	-198.09
374.594	-120.27
374.809	168.5
375.023	5.68
375.238	-323.63
375.453	258.4
375.667	-242.12
375.882	-231.06
376.097	-280.21
376.311	30.05
376.526	62.21
376.741	-293.12
376.955	96.41
377.17	513.17
377.384	641.37
377.599	-81.77
377.813	-348.82
378.028	556.18
378.242	208.02
378.457	-142.59
378.672	-402.68
378.886	79.41
379.101	-12.75
379.315	-412.51
379.53	-226.56
379.744	249.6
379.958	200.24
380.173	-265.67
380.387	-273.46
380.602	214.58
380.816	-112.89
381.031	-243.55
381.245	-191.33
381.459	169.93
381.674	3106.72
381.888	-295.78
382.103	87.81
382.317	-158.15
382.531	410.77
382.746	-114.94
382.96	-240.07
383.174	-111.87
383.388	518.08
383.603	13.47
383.817	-341.65
384.031	116.68
384.246	427.36
384.46	-74.6
384.674	372.27
384.888	-17.05
385.103	48.9
385.317	-382.41
385.531	-69.27
385.745	416.71
385.959	302.02
386.174	-273.86
386.388	-310.32
386.602	23.91
386.816	-121.29
387.03	-155.29
387.244	-155.08
387.458	95.38
387.672	359.16
387.887	-388.96
388.101	-354.35
388.315	324.96
388.529	123.03
388.743	-241.92
388.957	-310.52
389.171	283.18
389.385	-179.25
389.599	-264.24
389.813	-20.94
390.027	176.28
390.241	631.13
390.455	-214.47
390.669	-162.05
390.883	-85.86
391.097	462.99
391.311	-43.26
391.525	-222.05
391.738	254.72
391.952	184.47
392.166	-94.05
392.38	-334.07
392.594	261.47
392.808	282.16
393.022	-143.82
393.236	-191.33
393.449	174.85
393.663	209.87
393.877	-339.6
394.091	-169.21
394.305	18.99
394.518	-93.85
394.732	-337.56
394.946	-166.14
395.16	485.11
395.373	117.09
395.587	-295.78
395.801	-269.56
396.015	280.52
396.228	196.55
396.442	-364.38
396.656	-441.59
396.869	330.49
397.083	497.81
397.297	-118.22
397.51	-188.05
397.724	306.94
397.938	126.92
398.151	-377.7
398.365	-369.71
398.578	228.71
398.792	360.39
399.005	-42.44
399.219	-202.19
399.433	151.91
399.646	239.15
399.86	-31.39
400.073	-0.46
400.287	230.55
400.5	12.65
400.714	-71.93
400.927	-141.36
401.141	263.52
401.354	1147.63
401.567	210.48
401.781	-331.62
401.994	216.21
402.208	576.04
402.421	-168.39
402.635	-176.38
402.848	-32.2
403.061	257.38
403.275	-111.05
403.488	-303.76
403.701	443.95
403.915	297.11
404.128	-7.63
404.341	-233.72
404.555	270.49
404.768	-39.17
404.981	-26.27
405.195	-232.7
405.408	436.17
405.621	276.22
405.834	-17.46
406.048	-336.94
406.261	403.81
406.474	411.18
406.687	-257.07
406.9	-63.54
407.114	61.39
407.327	222.56
407.54	-376.47
407.753	-393.26
407.966	-116.17
408.179	178.94
408.392	-291.89
408.605	-388.35
408.819	126.1
409.032	216.01
409.245	-243.76
409.458	-26.47
409.671	207.61
409.884	282.57
410.097	-354.76
410.31	-46.95
410.523	268.64
410.736	-18.69
410.949	-163.89
411.162	-210.17
411.375	349.95
411.588	249.39
411.801	-24.22
412.014	-205.46
412.227	55.24
412.44	-41.01
412.653	-207.31
412.865	-62.92
413.078	316.16
413.291	207.82
413.504	-120.68
413.717	-271.41
413.93	255.94
414.143	-142.79
414.356	-154.26
414.568	-382.61
414.781	253.28
414.994	144.33
415.207	-130.1
415.42	-155.7
415.632	238.54
415.845	534.47
416.058	-375.85
416.271	-338.17
416.483	90.47
416.696	512.56
416.909	-272.02
417.121	-273.86
417.334	133.68
417.547	469.34
417.759	-290.86
417.972	-300.69
418.185	-57.8
418.397	242.84
418.61	-257.69
418.823	-264.44
419.035	408.31
419.248	78.8
419.46	-153.03
419.673	-109
419.885	149.66
420.098	56.68
420.311	-217.55
420.523	-435.45
420.736	245.71
420.948	87.6
421.161	-226.76
421.373	-429.92
421.586	-28.52
421.798	-57.19
422.01	-394.29
422.223	-93.64
422.435	-68.04
422.648	321.89
422.86	-227.99
423.073	-221.44
423.285	271.51
423.497	-233.93
423.71	-253.18
423.922	-249.7
424.134	359.78
424.347	498.63
424.559	-33.84
424.771	98.46
424.984	40.7
425.196	249.39
425.408	-390.39
425.621	-286.36
425.833	316.77
426.045	399.71
426.257	-292.5
426.47	-163.68
426.682	114.23
426.894	229.32
427.106	-212.84
427.318	-148.12
427.531	-34.25
427.743	216.62
427.955	-154.26
428.167	276.22
428.379	182.01
428.591	65.28
428.804	-105.73
429.016	-248.06
429.228	24.52
429.44	209.25
429.652	-20.53
429.864	-303.76
430.076	48.49
430.288	72.04
430.5	-131.33
430.712	-94.87
430.924	338.48
431.136	172.39
431.348	-325.27
431.56	-197.88
431.772	67.53
431.984	-0.46
432.196	-191.54
432.408	-181.09
432.62	63.23
432.832	238.54
433.044	105.21
433.256	-70.5
433.468	264.34
433.679	-178.84
433.891	-259.53
434.103	30.05
434.315	325.99
434.527	321.28
434.739	-45.31
434.95	-157.34
435.162	335.41
435.374	-12.75
435.586	-81.77
435.798	-140.13
436.009	-100.4
436.221	23.91
436.433	-140.34
436.645	-122.52
436.856	22.48
437.068	431.05
437.28	-191.13
437.491	107.47
437.703	332.13
437.915	285.03
438.126	-120.88
438.338	157.03
438.55	137.98
438.761	250.62
438.973	-103.27
439.184	-101.02
439.396	161.94
439.608	361.82
439.819	-182.93
440.031	-17.66
440.242	337.66
440.454	384.76
440.665	-60.47
440.877	25.75
441.088	376.98
441.3	159.49
441.511	-228.81
441.723	-122.31
441.934	238.54
442.146	273.76
442.357	77.98
442.569	217.44
442.78	277.65
442.991	702.61
443.203	280.52
443.414	-142.39
443.626	665.54
443.837	115.66
444.048	-128.87
444.26	-200.96
444.471	340.12
444.682	453.37
444.894	-182.32
445.105	-154.88
445.316	556.59
445.528	425.52
445.739	97.02
445.95	57.91
446.161	393.57
446.373	556.18
446.584	23.09
446.795	4.25
447.006	478.97
447.217	654.27
447.429	-168.39
447.64	-90.16
447.851	648.95
448.062	401.35
448.273	-114.12
448.484	-45.31
448.695	482.86
448.907	415.28
449.118	102.55
449.329	244.07
449.54	223.18
449.751	166.04
449.962	-16.43
450.173	-30.36
450.384	571.95
450.595	657.55
450.806	-31.18
451.017	33.13
451.228	644.85
451.439	562.94
451.65	21.04
451.861	-204.44
452.072	123.44
452.283	279.7
452.494	168.7
452.705	-69.89
452.915	690.11
453.126	380.05
453.337	17.15
453.548	-120.47
453.759	556.79
453.97	719.81
454.181	221.33
454.391	-29.54
454.602	347.9
454.813	451.12
455.024	2.61
455.235	-77.87
455.445	409.34
455.656	380.26
455.867	109.11
456.078	-69.89
456.288	197.78
456.499	453.16
456.71	-135.83
456.921	172.39
457.131	342.78
457.342	306.73
457.553	8.14
457.763	-80.74
457.974	378.41
458.184	442.51
458.395	-163.48
458.606	-111.26
458.816	545.73
459.027	680.9
459.237	49.51
459.448	-251.34
459.659	535.49
459.869	809.92
460.08	-235.16
460.29	46.23
460.501	689.09
460.711	127.13
460.922	-234.75
461.132	-133.17
461.343	866.65
461.553	-17.05
461.764	-123.34
461.974	-106.14
462.184	454.39
462.395	372.68
462.605	-57.6
462.816	-167.17
463.026	335.82
463.236	489.21
463.447	-124.16
463.657	-175.15
463.867	498.63
464.078	191.02
464.288	-46.13
464.498	-96.31
464.709	240.99
464.919	221.13
465.129	-44.08
465.339	-152.42
465.55	374.93
465.76	468.11
465.97	-61.7
466.18	-126.62
466.391	488.59
466.601	350.36
466.811	-46.74
467.021	-219.39
467.231	341.75
467.441	504.57
467.651	-63.95
467.862	-350.25
468.072	238.13
468.282	462.18
468.492	-116.38
468.702	-65.79
468.912	238.95
469.122	858.05
469.332	160.71
469.542	-172.49
469.752	496.79
469.962	298.13
470.172	-180.68
470.382	-152.62
470.592	430.23
470.802	440.67
471.012	5.07
471.222	-139.31
471.432	412.2
471.642	420.6
471.852	-2.1
472.062	-170.24
472.272	157.44
472.482	-22.17
472.691	-190.31
472.901	-232.29
473.111	248.16
473.321	781.25
473.531	-180.89
473.741	-38.76
473.95	354.45
474.16	396.64
474.37	-9.06
474.58	-226.76
474.79	695.44
474.999	388.45
475.209	-173.31
475.419	-106.75
475.628	163.99
475.838	534.47
476.048	-3.12
476.258	-217.55
476.467	476.92
476.677	118.12
476.886	117.5
477.096	-15.41
477.306	117.71
477.515	599.18
477.725	-2.71
477.935	-6.6
478.144	625.19
478.354	112.18
478.563	-46.54
478.773	-134.6
478.982	467.7
479.192	502.52
479.401	26.16
479.611	-152.01
479.82	56.88
480.03	338.89
480.239	-145.05
480.449	-153.44
480.658	657.35
480.868	135.73
481.077	15.31
481.287	-37.94
481.496	386.2
481.705	622.74
481.915	203.31
482.124	200.44
482.333	402.17
482.543	687.45
482.752	18.99
482.961	-102.86
483.171	477.33
483.38	275.2
483.589	-0.67
483.799	-95.9
484.008	314.31
484.217	453.57
484.426	1.18
484.636	-155.9
484.845	554.54
485.054	16.33
485.263	260.45
485.472	-19.71
485.682	660.42
485.891	368.58
486.1	-139.11
486.309	-30.77
486.518	504.57
486.727	669.22
486.936	-92
487.146	129.38
487.355	668.82
487.564	126.31
487.773	17.77
487.982	30.05
488.191	264.55
488.4	395.21
488.609	8.35
488.818	26.57
489.027	854.98
489.236	742.34
489.445	68.97
489.654	-28.52
489.863	622.94
490.072	377.39
490.281	413.43
490.49	29.64
490.698	784.73
490.907	833.68
491.116	60.77
491.325	-62.51
491.534	714.89
491.743	455.42
491.952	159.49
492.16	131.63
492.369	545.94
492.578	674.14
492.787	152.11
492.996	155.39
493.204	300.59
493.413	835.93
493.622	-77.46
493.831	-85.25
494.039	903.51
494.248	187.13
494.457	60.77
494.665	-46.54
494.874	622.74
495.083	944.27
495.291	80.23
495.5	65.48
495.709	667.18
495.917	535.08
496.126	246.52
496.335	85.35
496.543	377.18
496.752	570.31
496.96	374.11
497.169	-26.67
497.377	494.53
497.586	737.83
497.794	233.21
498.003	-65.38
498.211	488.59
498.42	831.22
498.628	232.8
498.837	101.94
499.045	649.36
499.254	567.24
499.462	173.21
499.671	92.11
499.879	998.13
500.087	801.73
500.296	78.8
500.504	191.84
500.713	640.76
500.921	1041.34
501.129	148.63
501.338	187.75
501.546	641.37
501.754	589.56
501.962	190
502.171	76.34
502.379	703.22
502.587	939.56
502.795	268.03
503.004	233.21
503.212	658.78
503.42	890.61
503.628	212.73
503.837	357.93
504.045	771.21
504.253	1030.28
504.461	213.35
504.669	77.36
504.877	756.88
505.085	940.79
505.294	120.37
505.502	445.59
505.71	641.58
505.918	763.43
506.126	178.12
506.334	203.31
506.542	597.55
506.75	734.56
506.958	395.21
507.166	316.16
507.374	541.23
507.582	1062.64
507.79	389.88
507.998	217.65
508.206	886.72
508.414	786.37
508.622	262.5
508.83	354.66
509.037	830.81
509.245	598.57
509.453	247.55
509.661	193.48
509.869	849.04
510.077	612.09
510.285	447.63
510.492	38.45
510.7	1217.67
510.908	597.75
511.116	325.99
511.324	261.27
511.531	624.58
511.739	756.67
511.947	475.49
512.155	620.48
512.362	796.4
512.57	435.76
512.778	269.87
512.985	118.53
513.193	944.27
513.401	1073.08
513.608	393.36
513.816	330.49
514.024	898.6
514.231	980.93
514.439	349.95
514.646	352.81
514.854	968.43
515.061	965.36
515.269	352.4
515.477	370.43
515.684	502.11
515.892	999.97
516.099	216.42
516.307	259.63
516.514	948.98
516.722	1123.46
516.929	373.29
517.136	272.33
517.344	1061.21
517.551	843.51
517.759	339.91
517.966	404.63
518.173	680.49
518.381	750.94
518.588	460.95
518.796	355.07
519.003	989.94
519.21	816.06
519.418	348.1
519.625	701.38
519.832	767.53
520.039	902.08
520.247	236.9
520.454	392.34
520.661	1030.69
520.868	906.58
521.076	440.67
521.283	469.55
521.49	1368.4
521.697	899.01
521.904	451.94
522.112	416.1
522.319	1032.74
522.526	940.99
522.733	361.21
522.94	436.58
523.147	810.33
523.354	1014.31
523.561	283.39
523.768	508.87
523.975	1095.41
524.183	871.36
524.39	598.16
524.597	312.67
524.804	850.68
525.011	637.28
525.218	419.37
525.425	439.24
525.632	1183.88
525.838	677.42
526.045	452.14
526.252	461.15
526.459	1775.74
526.666	1793.76
526.873	434.12
527.08	464.63
527.287	1197.4
527.494	1056.29
527.701	371.04
527.907	394.59
528.114	1024.75
528.321	879.76
528.528	488.59
528.735	406.68
528.941	785.14
529.148	738.65
529.355	562.32
529.562	464.02
529.768	1316.18
529.975	809.1
530.182	528.94
530.388	469.34
530.595	1124.9
530.802	610.86
531.008	689.3
531.215	510.92
531.422	1589.58
531.628	1644.06
531.835	593.45
532.042	601.85
532.248	770.8
532.455	961.88
532.661	558.43
532.868	458.08
533.074	990.76
533.281	1161.15
533.487	529.76
533.694	499.04
533.9	744.39
534.107	1037.04
534.313	508.66
534.52	424.9
534.726	1087.22
534.933	1393.59
535.139	447.63
535.345	418.55
535.552	1142.1
535.758	957.58
535.965	570.51
536.171	500.06
536.377	1120.39
536.584	1345.87
536.79	565.19
536.996	671.68
537.203	1044.82
537.409	1130.02
537.615	601.23
537.821	542.66
538.028	1202.31
538.234	1129.81
538.44	592.43
538.646	677.01
538.853	1109.95
539.059	903.1
539.265	1046.67
539.471	380.05
539.677	1212.96
539.883	853.54
540.09	565.8
540.296	980.31
540.502	948.98
540.708	810.13
540.914	824.46
541.12	629.49
541.326	1142.1
541.532	994.85
541.738	701.79
541.944	689.3
542.15	1257.81
542.356	967.2
542.562	546.14
542.768	704.45
542.974	1548.01
543.18	1507.66
543.386	584.44
543.592	474.05
543.798	1433.53
544.004	1337.68
544.21	615.36
544.415	761.59
544.621	1150.09
544.827	1348.33
545.033	509.69
545.239	880.78
545.445	771.21
545.651	1131.66
545.856	637.48
546.062	617
546.268	919.49
546.474	1117.73
546.679	676.19
546.885	752.17
547.091	892.04
547.297	1506.64
547.502	763.43
547.708	585.46
547.914	887.95
548.119	1264.16
548.325	600.82
548.531	550.85
548.736	1491.07
548.942	914.57
549.147	646.7
549.353	947.34
549.559	1351.81
549.764	1185.31
549.97	717.56
550.175	711.21
550.381	1247.16
550.586	962.49
550.792	764.25
550.997	727.39
551.203	1218.08
551.408	1300.61
551.614	566.21
551.819	673.73
552.025	1545.14
552.23	1481.04
552.435	664.72
552.641	888.56
552.846	923.79
553.052	1450.12
553.257	886.31
553.462	707.73
553.668	934.03
553.873	1343.42
554.078	690.52
554.283	717.97
554.489	1227.09
554.694	1145.99
554.899	696.26
555.105	927.47
555.31	1282.18
555.515	1366.35
555.72	869.72
555.925	1220.54
556.131	1364.31
556.336	1043.59
556.541	749.51
556.746	663.9
556.951	1530.6
557.156	1483.91
557.361	885.9
557.567	981.34
557.772	1608.42
557.977	1320.27
558.182	800.91
558.387	792.72
558.592	1034.17
558.797	1518.52
559.002	875.05
559.207	903.51
559.412	1217.47
559.617	1674.37
559.822	824.26
560.027	692.98
560.232	1261.7
560.437	1379.05
560.642	668.82
560.847	733.53
561.051	1196.58
561.256	1274.81
561.461	873.61
561.666	732.1
561.871	1227.3
562.076	1431.89
562.281	873.61
562.485	730.46
562.69	1407.11
562.895	1443.15
563.1	862.76
563.305	726.77
563.509	1527.73
563.714	1760.59
563.919	793.13
564.123	872.18
564.328	1203.34
564.533	1573.2
564.737	908.22
564.942	808.49
565.147	1567.26
565.351	1659.42
565.556	968.02
565.761	968.23
565.965	1350.79
566.17	1065.92
566.374	892.25
566.579	808.08
566.784	1340.34
566.988	1195.14
567.193	745.41
567.397	965.16
567.602	959.22
567.806	1283.21
568.011	897.16
568.215	964.13
568.42	1230.78
568.624	1239.79
568.828	931.57
569.033	1099.09
569.237	1508.89
569.442	1454.62
569.646	770.8
569.85	893.48
570.055	1278.91
570.259	1387.86
570.463	1153.98
570.668	977.65
570.872	1287.3
571.076	1241.84
571.281	1106.06
571.485	1059.36
571.689	1356.32
571.893	1520.16
572.098	1113.43
572.302	948.36
572.506	1521.79
572.71	1376.8
572.914	980.93
573.119	962.7
573.323	1718.81
573.527	1665.77
573.731	978.67
573.935	906.17
574.139	1439.47
574.343	1217.47
574.547	1002.43
574.751	1079.02
574.955	1613.75
575.159	1650
575.364	1006.12
575.568	911.09
575.772	1379.67
575.976	1618.05
576.18	963.52
576.383	930.34
576.587	1673.55
576.791	1511.14
576.995	830.6
577.199	859.48
577.403	1557.84
577.607	1666.18
577.811	962.9
578.015	1158.48
578.219	1533.26
578.422	1626.24
578.626	1138.82
578.83	1268.05
579.034	1735.4
579.238	1522.41
579.442	1006.73
579.645	1431.48
579.849	1428.41
580.053	1499.27
580.257	1122.44
580.46	1145.17
580.664	1716.15
580.868	1626.04
581.071	1296.72
581.275	1226.48
581.479	1193.71
581.682	1677.64
581.886	1036.84
582.09	1229.55
582.293	1711.64
582.497	1736.22
582.7	1332.56
582.904	1081.89
583.107	1506.03
583.311	1422.06
583.515	1196.99
583.718	1184.7
583.922	1661.67
584.125	2030.51
584.329	1096.84
584.532	1277.88
584.735	1894.73
584.939	1624.6
585.142	1019.43
585.346	1077.79
585.549	1636.69
585.753	1404.86
585.956	1187.36
586.159	1348.95
586.363	1910.09
586.566	1698.53
586.769	1129.4
586.973	1084.76
587.176	1684.4
587.379	1807.08
587.582	1484.32
587.786	1444.38
587.989	1593.06
588.192	2290.6
588.395	1296.93
588.599	1545.96
588.802	1692.39
589.005	1790.49
589.208	1304.3
589.411	1241.02
589.615	1811.58
589.818	1996.1
590.021	1524.46
590.224	1399.53
590.427	1876.71
590.63	1797.25
590.833	1105.03
591.036	1208.66
591.239	1534.7
591.442	1497.63
591.645	1499.06
591.848	1296.31
592.051	1728.64
592.254	1889.2
592.457	1384.38
592.66	1361.03
592.863	1620.3
593.066	1821.62
593.269	1323.55
593.472	1393.59
593.675	1503.16
593.878	1919.92
594.081	1417.76
594.284	1248.39
594.486	1837.59
594.689	1733.14
594.892	1433.94
595.095	1392.77
595.298	1862.99
595.5	1552.1
595.703	1483.91
595.906	1495.58
596.109	2048.74
596.311	1918.69
596.514	1137.6
596.717	1425.34
596.92	2036.86
597.122	1911.32
597.325	1151.32
597.528	1327.24
597.73	2115.5
597.933	1822.23
598.136	1383.15
598.338	1112.61
598.541	1887.97
598.743	2082.94
598.946	1474.9
599.148	1425.54
599.351	2068.19
599.554	1962.93
599.756	1479.4
599.959	1463.22
600.161	2070.24
600.363	2338.93
600.566	1690.96
600.768	1435.37
600.971	2148.68
601.173	1966.2
601.376	1454.21
601.578	1460.15
601.78	1912.96
601.983	2402.42
602.185	1381.92
602.388	1680.1
602.59	1978.29
602.792	1744.2
602.995	1700.58
603.197	1481.65
603.399	2084.37
603.601	1980.74
603.804	1523.84
604.006	1433.53
604.208	1763.05
604.41	1410.79
604.613	1668.43
604.815	1469.78
605.017	2350.2
605.219	1699.56
605.421	1933.44
605.623	1485.55
605.826	2213.39
606.028	2268.69
606.23	1499.68
606.432	1522.61
606.634	2202.13
606.836	2192.91
607.038	1413.46
607.24	1678.46
607.442	2035.02
607.644	1925.24
607.846	1650.82
608.048	1471.41
608.25	2248.62
608.452	1710.62
608.654	1579.14
608.856	1356.93
609.058	1886.13
609.26	2088.67
609.462	1653.89
609.664	1613.95
609.866	2239.2
610.067	2139.87
610.269	1725.77
610.471	1615.8
610.673	1829.6
610.875	2095.23
611.077	1457.69
611.278	1672.52
611.48	1976.85
611.682	2331.36
611.884	1661.88
612.085	1656.35
612.287	1717.99
612.489	2036.04
612.69	1464.86
612.892	1598.8
613.094	2246.37
613.295	2104.44
613.497	1475.1
613.699	1603.71
613.9	2306.17
614.102	2153.59
614.304	1644.88
614.505	1474.28
614.707	1934.66
614.908	2006.75
615.11	1441.51
615.311	1675.19
615.513	2148.27
615.714	2149.7
615.916	1513.6
616.117	1667
616.319	1978.9
616.52	2186.16
616.722	1598.18
616.923	1616.41
617.124	2333.2
617.326	2163.83
617.527	1762.84
617.729	1822.64
617.93	2144.17
618.131	2149.5
618.333	1643.03
618.534	1711.44
618.735	1931.8
618.937	2389.93
619.138	1551.9
619.339	1537.97
619.54	2140.9
619.742	1925.65
619.943	1797.04
620.144	1730.89
620.345	2314.15
620.546	2265.82
620.748	1653.68
620.949	1765.5
621.15	2227.73
621.351	2118.37
621.552	1624.81
621.753	1515.86
621.954	1677.44
622.155	2487.41
622.356	1588.15
622.558	1849.67
622.759	2057.13
622.96	2556.63
623.161	1713.28
623.362	1720.45
623.563	2059.18
623.764	2114.48
623.965	1706.93
624.166	1874.25
624.366	1977.26
624.567	2181.85
624.768	1483.29
624.969	1649.59
625.17	1981.97
625.371	2180.83
625.572	1857.05
625.773	1636.48
625.973	2262.14
626.174	2308.21
626.375	1781.07
626.576	1838.82
626.777	2224.25
626.977	2610.29
627.178	1839.02
627.379	1874.66
627.58	2043.41
627.78	2069.22
627.981	1793.36
628.182	1882.03
628.382	2294.29
628.583	1763.25
628.784	1615.8
628.984	1926.68
629.185	2261.11
629.386	2326.24
629.586	1880.39
629.787	1678.87
629.987	2301.46
630.188	2108.33
630.388	1777.18
630.589	1906.2
630.79	2706.54
630.99	2109.36
631.191	1834.52
631.391	1889.61
631.591	2259.88
631.792	2483.93
631.992	1970.71
632.193	1842.92
632.393	2560.52
632.594	2111.61
632.794	1814.24
632.994	1921.56
633.195	2109.77
633.395	2147.45
633.595	1776.97
633.796	2031.53
633.996	2012.49
634.196	2431.5
634.397	1683.79
634.597	1913.57
634.797	1955.96
634.997	2552.95
635.198	2074.13
635.398	1751.58
635.598	2294.29
635.798	2477.79
635.998	2275.04
636.199	1736.22
636.399	2012.08
636.599	1923.4
636.799	1841.69
636.999	2158.1
637.199	2325.42
637.399	2537.59
637.599	1830.63
637.799	1979.31
637.999	2065.73
638.199	2529.6
638.399	1841.69
638.599	1867.7
638.799	2405.9
638.999	2639.58
639.199	2089.49
639.399	1940.4
639.599	2519.36
639.799	1989.76
639.999	1806.87
640.199	1784.14
640.399	2288.96
640.599	2354.7
640.799	1966
640.998	2136.59
641.198	2483.32
641.398	2340.37
641.598	2015.35
641.798	1987.3
641.997	3233.49
642.197	2257.63
642.397	2072.9
642.597	1877.12
642.796	2412.66
642.996	2517.72
643.196	2143.35
643.395	1838.82
643.595	2360.03
643.795	1898.21
643.994	1972.35
644.194	2004.3
644.394	2473.49
644.593	2448.09
644.793	1839.02
644.992	2087.24
645.192	2484.13
645.392	1904.56
645.591	2137.41
645.791	2012.08
645.99	2542.3
646.19	2268.28
646.389	2016.38
646.589	2026.82
646.788	2443.18
646.987	2463.45
647.187	2274.63
647.386	2235.31
647.586	2322.96
647.785	2602.51
647.984	2027.64
648.184	2106.9
648.383	2143.76
648.582	2227.52
648.782	2053.45
648.981	2197.83
649.18	2166.09
649.38	2382.56
649.579	2077
649.778	1982.59
649.977	2507.07
650.177	2473.08
650.376	2000
650.575	1945.72
650.774	2737.06
650.973	2530.21
651.173	1918.69
651.372	2140.49
651.571	2364.94
651.77	2644.7
651.969	2112.43
652.168	2194.14
652.367	2116.32
652.566	2356.96
652.765	2086.42
652.964	2417.17
653.163	2816.32
653.362	2361.05
653.561	2084.99
653.76	2126.35
653.959	2410.61
654.158	2631.18
654.357	2357.98
654.556	2096.66
654.755	2592.06
654.954	2597.18
655.153	2161.17
655.352	2233.05
655.551	2750.17
655.749	2276.06
655.948	2239.61
656.147	2262.54
656.346	2563.39
656.545	2461.81
656.743	2236.54
656.942	2236.13
657.141	2509.32
657.34	2267.87
657.538	2228.34
657.737	2216.87
657.936	2474.51
658.135	2564.01
658.333	2198.85
658.532	2331.97
658.731	2880.01
658.929	2694.46
659.128	2522.84
659.326	2116.93
659.525	2851.13
659.724	2536.15
659.922	2002.86
660.121	2070.04
660.319	2613.16
660.518	2346.31
660.716	2144.99
660.915	2164.24
661.113	2903.35
661.312	2248.21
661.51	2367.4
661.709	2120.83
661.907	2727.64
662.105	2900.28
662.304	2250.67
662.502	2314.77
662.701	2845.6
662.899	2482.5
663.097	2625.24
663.296	2158.3
663.494	2788.87
663.692	2938.99
663.891	2200.7
664.089	2151.95
664.287	2668.86
664.485	2900.49
664.684	2217.08
664.882	2385.01
665.08	2553.56
665.278	2634.05
665.476	2206.02
665.675	2624.42
665.873	3030.33
666.071	2870.79
666.269	2283.23
666.467	2583.87
666.665	2711.05
666.863	2574.25
667.061	2485.77
667.259	2288.55
667.457	2611.31
667.655	2834.34
667.853	2201.11
668.051	2484.34
668.249	2432.53
668.447	3075.38
668.645	2243.5
668.843	2580.18
669.041	2847.85
669.239	2575.06
669.437	2458.94
669.635	2498.06
669.833	2552.74
670.031	2851.34
670.229	2465.7
670.426	2487.82
670.624	2603.12
670.822	2536.77
671.02	2307.4
671.218	2485.98
671.415	2429.25
671.613	2671.32
671.811	2557.66
672.009	2402.22
672.206	2883.69
672.404	2701.01
672.602	2614.18
672.799	2567.08
672.997	2882.06
673.195	2927.52
673.392	2563.8
673.59	2299.41
673.788	2893.73
673.985	2159.94
674.183	2515.26
674.38	2433.55
674.578	2944.31
674.775	2571.17
674.973	2360.03
675.17	2348.35
675.368	3037.29
675.565	2989.37
675.763	2423.52
675.96	2391.36
676.158	2966.64
676.355	2694.05
676.553	2367.81
676.75	2480.45
676.947	2717.4
677.145	2701.83
677.342	2570.56
677.539	2591.45
677.737	2883.69
677.934	3210.55
678.131	2666.81
678.329	2445.63
678.526	3291.03
678.723	2959.67
678.92	2593.7
679.118	2546.19
679.315	2548.24
679.512	3117.16
679.709	2545.98
679.906	2542.91
680.104	3038.32
680.301	2813.24
680.498	2387.68
680.695	2434.57
680.892	2656.16
681.089	2681.97
681.286	2633.23
681.483	2333.61
681.68	2897.21
681.877	3010.87
682.075	2590.83
682.272	2716.17
682.469	2994.9
682.665	2743.2
682.862	2459.56
683.059	2332.38
683.256	2927.32
683.453	2885.95
683.65	2658.42
683.847	2646.95
684.044	2870.59
684.241	2636.5
684.438	2745.66
684.635	2426.79
684.831	3311.72
685.028	3298.61
685.225	2516.49
685.422	2780.07
685.619	2811.4
685.815	2849.29
686.012	2671.73
686.209	2641.42
686.405	2655.55
686.602	3021.73
686.799	2473.9
686.996	2543.73
687.192	2665.79
687.389	3436.44
687.586	2500.93
687.782	2619.3
687.979	3326.26
688.175	3134.16
688.372	2650.02
688.568	2638.55
688.765	2777.61
688.962	3200.72
689.158	2761.63
689.355	2422.29
689.551	3034.01
689.748	2783.75
689.944	2747.3
690.14	2462.84
690.337	3106.31
690.533	2899.67
690.73	2822.05
690.926	2678.9
691.123	3010.46
691.319	2919.33
691.515	2504.61
691.712	2829.01
691.908	3049.99
692.104	2982
692.301	2799.52
692.497	2510.14
692.693	3132.93
692.889	3068.42
693.086	2820
693.282	2495.4
693.478	2940.22
693.674	3383.19
693.87	2713.1
694.067	2543.73
694.263	2997.15
694.459	2933.66
694.655	2899.87
694.851	2790.92
695.047	3122.9
695.243	3177.37
695.439	2847.85
695.635	2662.51
695.831	3106.1
696.027	3007.8
696.224	2631.79
696.42	3154.03
696.615	3362.71
696.811	3147.27
697.007	2533.29
697.203	2650.63
697.399	3119.41
697.595	3276.29
697.791	2641.83
697.987	2840.89
698.183	2811.81
698.379	2869.56
698.575	2754.47
698.77	2838.02
698.966	3176.14
699.162	3312.54
699.358	2794.61
699.554	2808.94
699.749	3250.69
699.945	3177.78
700.141	2907.25
700.337	2873.25
700.532	2977.29
700.728	2874.68
700.924	2714.12
701.119	2595.95
701.315	3183.31
701.511	3024.39
701.706	2878.37
701.902	2611.52
702.097	3077.84
702.293	3239.22
702.489	2837.2
702.684	2743.82
702.88	3107.74
703.075	2980.77
703.271	2837.41
703.466	2682.17
703.662	3047.94
703.857	3183.11
704.053	2771.26
704.248	2830.45
704.443	3364.15
704.639	3279.98
704.834	2889.84
705.03	2812.83
705.225	3259.29
705.42	3414.32
705.616	2967.87
705.811	2757.33
706.006	3085.62
706.202	3061.25
706.397	2976.06
706.592	2684.43
706.787	3223.45
706.983	3150.34
707.178	3212.19
707.373	2942.47
707.568	3354.93
707.763	3428.25
707.959	2809.56
708.154	2832.29
708.349	3239.63
708.544	3293.49
708.739	3110.2
708.934	2797.06
709.129	3360.26
709.324	3469.82
709.519	2884.92
709.714	2777.2
709.909	3437.46
710.104	3152.18
710.299	2913.8
710.494	2935.1
710.689	3303.94
710.884	3252.12
711.079	2999.81
711.274	3041.39
711.469	3407.36
711.664	3314.79
711.859	2957.22
712.054	3027.87
712.249	3373.36
712.443	3477.81
712.638	2822.25
712.833	2862.19
713.028	3233.49
713.223	3212.6
713.417	3251.3
713.612	2916.46
713.807	3472.08
714.002	3975.47
714.196	3201.74
714.391	2953.32
714.586	3421.9
714.78	3325.24
714.975	2975.24
715.17	2950.05
715.364	3258.68
715.559	3522.86
715.754	2681.56
715.948	2893.73
716.143	3731.96
716.337	3340.19
716.532	3323.8
716.726	3002.48
716.921	3489.69
717.115	3737.08
717.31	2850.31
717.504	3690.39
717.699	3235.13
717.893	3460.4
718.088	2918.92
718.282	2900.9
718.476	3378.89
718.671	3447.91
718.865	3016.81
719.059	2995.1
719.254	3312.54
719.448	3706.57
719.642	4645.56
719.837	2833.11
720.031	3601.3
720.225	3612.36
720.419	3113.27
720.614	2996.33
720.808	3581.03
721.002	3345.92
721.196	3038.72
721.39	3093.41
721.585	3704.52
721.779	3528.6
721.973	3142.97
722.167	2893.73
722.361	3494.19
722.555	3712.71
722.749	3178.6
722.943	3080.09
723.137	3130.47
723.331	3512.42
723.525	3158.33
723.719	3140.51
723.913	3609.29
724.107	3806.3
724.301	3001.04
724.495	3236.76
724.689	3876.14
724.883	3738.93
725.077	3108.56
725.271	3109.38
725.465	3734.83
725.659	3399.58
725.853	3271.58
726.046	2987.32
726.24	3317.86
726.434	3655.57
726.628	3179.42
726.822	3201.74
727.015	3782.34
727.209	3859.55
727.403	3237.79
727.596	3018.25
727.79	3623.42
727.984	3682.4
728.177	3181.67
728.371	3298.82
728.565	3748.35
728.758	3237.58
728.952	3138.26
729.146	3181.88
729.339	3828.63
729.533	3467.36
729.726	3235.33
729.92	3124.33
730.113	3831.7
730.307	3621.58
730.5	3288.78
730.694	3154.03
730.887	3486
731.081	3722.95
731.274	3167.75
731.468	3262.16
731.661	3574.27
731.854	3426.61
732.048	3232.46
732.241	3141.12
732.435	3436.44
732.628	3609.7
732.821	3375
733.014	3200.31
733.208	3336.91
733.401	3747.32
733.594	3289.81
733.788	3230.82
733.981	3865.69
734.174	3723.36
734.367	3271.99
734.56	3402.44
734.754	3887.81
734.947	3648
735.14	3271.58
735.333	3364.15
735.526	3883.31
735.719	3440.95
735.912	3277.52
736.105	3254.99
736.298	3696.12
736.491	3558.7
736.684	3279.98
736.877	3296.15
737.07	3796.47
737.263	4044.07
737.456	3316.22
737.649	3218.74
737.842	3526.76
738.035	3724.59
738.228	3429.27
738.421	3529.42
738.614	3997.38
738.807	3886.58
739	3164.47
739.192	3270.55
739.385	3841.32
739.578	3827.4
739.771	3674.82
739.964	3355.34
740.156	3809.99
740.349	3685.06
740.542	3627.52
740.735	3206.45
740.927	3396.91
741.12	3477.6
741.313	3278.34
741.505	3561.78
741.698	3830.47
741.891	3877.37
742.083	3573.04
742.276	3422.72
742.468	3832.31
742.661	3701.86
742.854	3440.95
743.046	3381.15
743.239	4035.47
743.431	3707.39
743.624	3498.9
743.816	3172.46
744.009	3655.78
744.201	3848.9
744.393	3657.83
744.586	3292.88
744.778	3952.32
744.971	3735.85
745.163	3500.54
745.355	3564.03
745.548	3735.44
745.74	3712.51
745.932	3547.65
746.125	3399.17
746.317	4277.75
746.509	3853.2
746.702	3465.32
746.894	3509.55
747.086	3878.19
747.278	4047.14
747.471	3610.93
747.663	3551.13
747.855	3834.77
748.047	4259.72
748.239	3471.26
748.431	3455.9
748.623	4212.42
748.815	4144.22
749.008	3341.41
749.2	3416.78
749.392	3937.37
749.584	3991.03
749.776	3589.01
749.968	3622.81
750.16	4242.52
750.352	3748.55
750.544	3600.48
750.736	3424.36
750.928	3900.71
751.12	3941.47
751.311	3515.08
751.503	3554.2
751.695	3865.08
751.887	3851.15
752.079	3316.22
752.271	3509.96
752.463	4557.09
752.654	4024
752.846	3566.28
753.038	3503.82
753.23	3661.92
753.421	3998.2
753.613	3499.11
753.805	3772.1
753.997	4015.4
754.188	4065.58
754.38	3441.56
754.572	3534.74
754.763	3720.9
754.955	3946.18
755.146	3586.15
755.338	3532.08
755.53	4014.38
755.721	3811.63
755.913	3319.91
756.104	3405.72
756.296	3757.15
756.487	4058.41
756.679	3414.94
756.87	3511.19
757.062	3705.95
757.253	3973.01
757.445	3441.36
757.636	3630.79
757.827	3866.31
758.019	4479.06
758.21	3409
758.401	3534.74
758.593	4406.77
758.784	4187.43
758.975	3374.8
759.167	3394.05
759.358	3798.93
759.549	4107.97
759.74	3519.38
759.932	3475.15
760.123	4056.97
760.314	3753.47
760.505	3581.44
760.696	3478.83
760.888	4225.73
761.079	3818.59
761.27	3429.27
761.461	3294.93
761.652	4191.53
761.843	3723.57
762.034	3623.01
762.225	3898.46
762.416	3805.07
762.607	3802.62
762.798	3419.24
762.989	3562.6
763.18	4931.25
763.371	3759.2
763.562	3509.14
763.753	3497.47
763.944	3981
764.135	3971.17
764.326	3724.18
764.517	3533.1
764.708	3954.58
764.899	3978.33
765.089	3387.9
765.28	3345.72
765.471	3820.64
765.662	4051.85
765.853	3553.58
766.043	3390.16
766.234	4056.57
766.425	4037.11
766.615	3520.82
766.806	3344.08
766.997	4094.04
767.187	3930
767.378	3393.64
767.569	3287.14
767.759	3892.32
767.95	3782.55
768.141	3669.91
768.331	3447.91
768.522	3893.34
768.712	3990.21
768.903	3412.48
769.093	3444.84
769.284	4108.79
769.474	3916.89
769.665	3292.06
769.855	3228.16
770.046	4046.94
770.236	3781.93
770.426	3646.36
770.617	3411.86
770.807	3850.13
770.998	3808.76
771.188	3736.06
771.378	3415.14
771.569	4048.58
771.759	3912.8
771.949	3313.77
772.139	3142.76
772.33	3806.51
772.52	3986.32
772.71	3425.18
772.9	3303.73
773.09	4118.62
773.281	4221.22
773.471	3392.82
773.661	3461.43
773.851	3944.95
774.041	3711.48
774.231	3322.57
774.421	3684.65
774.611	4114.93
774.802	3779.48
774.992	3471.87
775.182	3290.22
775.372	3854.23
775.562	4022.57
775.752	3491.33
775.942	3494.4
776.131	4111.04
776.321	3974.65
776.511	3361.89
776.701	3318.27
776.891	4073.15
777.081	3575.7
777.271	3587.58
777.461	3365.17
777.651	3936.55
777.84	4010.9
778.03	3607.45
778.22	3421.08
778.41	4045.92
778.599	3564.85
778.789	3434.6
778.979	3327.69
779.169	3786.23
779.358	3678.31
779.548	3770.05
779.738	3247.82
779.927	3870
780.117	3443.2
780.307	3426.81
780.496	3136.82
780.686	3882.28
780.875	4263.21
781.065	3387.49
781.254	3379.1
781.444	3766.37
781.633	3758.18
781.823	3275.06
782.012	3309.06
782.202	3580.82
782.391	3685.27
782.581	3350.63
782.77	3611.13
782.96	3999.63
783.149	3717.63
783.338	3351.65
783.528	3164.27
783.717	3961.74
783.906	4036.7
784.096	3576.32
784.285	3268.1
784.474	3636.32
784.663	3544.16
784.853	3313.97
785.042	3446.68
785.231	3636.94
785.42	3871.22
785.61	3507.3
785.799	3282.64
785.988	3861.8
786.177	3612.57
786.366	3407.77
786.555	3625.47
786.744	3911.36
786.933	3667.66
787.122	3183.31
787.312	3193.55
787.501	3517.13
787.69	3847.26
787.879	3330.97
788.068	3278.95
788.257	3393.43
788.445	3533.51
788.634	3403.47
788.823	3226.32
789.012	4307.24
789.201	4035.88
789.39	3456.92
789.579	3283.46
789.768	3728.48
789.957	3712.71
790.145	3276.9
790.334	3000.22
790.523	3507.5
790.712	3628.95
790.9	3367.42
791.089	3161.81
791.278	3858.94
791.467	3745.68
791.655	3664.38
791.844	3922.01
792.033	3531.26
792.221	3671.96
792.41	3471.67
792.599	3044.87
792.787	3808.76
792.976	3854.84
793.164	3165.49
793.353	3300.25
793.541	3855.86
793.73	3835.79
793.918	3413.91
794.107	3321.14
794.295	3664.58
794.484	3623.01
794.672	3383.19
794.861	3285.51
795.049	3728.07
795.238	4146.68
795.426	3137.03
795.614	3361.08
795.803	3754.9
795.991	3996.56
796.179	3278.95
796.368	3302.71
796.556	3943.52
796.744	3392.61
796.932	3241.88
797.121	3179.22
797.309	3605.81
797.497	3850.33
797.685	3299.23
797.874	3201.33
798.062	3615.43
798.25	3988.98
798.438	3196.42
798.626	3356.16
798.814	3771.08
799.002	4225.11
799.19	3463.06
799.378	3365.58
799.566	3910.34
799.755	4029.74
799.943	3570.99
800.131	3276.49
800.318	3723.16
800.506	3773.74
800.694	3263.18
800.882	3437.87
801.07	4084.62
801.258	3659.26
801.446	3335.07
801.634	3363.33
801.822	3721.93
802.01	3737.9
802.197	3298.61
802.385	3483.34
802.573	3828.22
802.761	3492.55
802.949	3428.86
803.136	3116.96
803.324	3972.6
803.512	3832.11
803.699	3535.77
803.887	3116.55
804.075	4037.72
804.262	3642.47
804.45	3241.68
804.638	3536.38
804.825	3539.45
805.013	3487.03
805.201	3416.78
805.388	3294.93
805.576	3719.67
805.763	4133.98
805.951	3438.9
806.138	3530.44
806.326	4229.62
806.513	3834.77
806.701	3436.65
806.888	3409.41
807.075	3938.6
807.263	4215.69
807.45	3326.46
807.638	3594.34
807.825	4282.25
808.012	4052.67
808.2	3521.43
808.387	3815.52
808.574	3960.52
808.761	4191.53
808.949	3384.01
809.136	3569.76
809.323	3791.35
809.51	3836.2
809.698	3850.74
809.885	3701.45
810.072	3950.28
810.259	4178.21
810.446	3598.03
810.633	3465.32
810.82	4131.73
811.008	4293.92
811.195	3787.87
811.382	3592.91
811.569	3908.5
811.756	3580.62
811.943	3625.47
812.13	3508.94
812.317	3810.6
812.504	3752.24
812.691	3711.07
812.878	3674.41
813.064	4277.54
813.251	3894.37
813.438	3492.55
813.625	3759
813.812	3845.42
813.999	3937.37
814.186	3712.71
814.372	3597.41
814.559	3948.84
814.746	4306.42
814.933	3513.44
815.12	3838.05
815.306	3848.7
815.493	3635.71
815.68	3560.34
815.866	3565.67
816.053	4218.15
816.24	4409.02
816.426	3724.59
816.613	3465.11
816.799	4091.38
816.986	4235.15
817.173	3605.19
817.359	3559.32
817.546	4007.21
817.732	3581.03
817.919	3375.62
818.105	3759
818.292	3835.59
818.478	4030.97
818.665	3826.58
818.851	3534.74
819.037	4566.3
819.224	3935.12
819.41	3440.13
819.597	3502.79
819.783	4469.03
819.969	4015.81
820.156	3607.65
820.342	3466.55
820.528	4871.25
820.714	3772.72
820.901	3890.07
821.087	3573.24
821.273	4321.78
821.459	3853.41
821.646	3484.77
821.832	3489.48
822.018	3970.14
822.204	3916.69
822.39	3582.67
822.576	3451.6
822.762	4063.12
822.948	4028.51
823.134	3778.25
823.32	3553.17
823.507	3626.29
823.693	4022.36
823.879	4096.09
824.065	3508.32
824.25	3983.86
824.436	3687.52
824.622	3555.63
824.808	3457.33
824.994	3797.91
825.18	3731.14
825.366	3371.72
825.552	3497.47
825.738	3861.8
825.923	4186.2
826.109	3763.09
826.295	3515.9
826.481	3827.6
826.667	3723.16
826.852	3780.29
827.038	3425.59
827.224	4164.08
827.409	4347.17
827.595	3283.66
827.781	3752.03
827.966	4172.28
828.152	4200.33
828.338	3555.84
828.523	3270.55
828.709	3744.05
828.894	4062.71
829.08	3643.69
829.266	3434.6
829.451	3871.63
829.637	4086.88
829.822	3620.55
830.008	3518.77
830.193	4132.14
830.378	4300.07
830.564	3617.69
830.749	3346.53
830.935	3903.58
831.12	3950.69
831.305	3611.54
831.491	3609.29
831.676	3540.68
831.861	4025.85
832.047	3510.78
832.232	3349.81
832.417	4058.2
832.602	3895.19
832.788	3416.17
832.973	3411.66
833.158	3790.53
833.343	3827.4
833.528	3642.47
833.714	3618.3
833.899	3842.96
834.084	4315.43
834.269	3710.66
834.454	3455.9
834.639	3978.33
834.824	3811.22
835.009	3576.73
835.194	3732.37
835.379	4075.41
835.564	4261.98
835.749	3708.41
835.934	3291.24
836.119	3996.15
836.304	3879.42
836.489	3392.41
836.674	3741.59
836.859	3594.75
837.044	4150.77
837.228	3477.6
837.413	3380.74
837.598	3859.55
837.783	4012.33
837.968	3467.77
838.152	3326.26
838.337	3350.84
838.522	4150.77
838.707	3975.26
838.891	3682.61
839.076	3858.53
839.261	3924.88
839.445	3528.39
839.63	3553.58
839.815	4205.45
839.999	3602.12
840.184	3412.68
840.368	3431.12
840.553	3998.4
840.737	3917.51
840.922	3262.57
841.106	3252.33
841.291	3434.8
841.475	3744.05
841.66	3388.31
841.844	3332.81
842.029	4428.07
842.213	3429.48
842.397	3427.43
842.582	3153.82
842.766	3952.53
842.951	3925.5
843.135	3343.26
843.319	3352.27
843.504	3794.63
843.688	4075.82
843.872	3065.14
844.056	3279.16
844.241	3829.04
844.425	3566.9
844.609	3493.58
844.793	3141.94
844.977	3939.42
845.161	3723.16
845.346	3167.54
845.53	3244.96
845.714	3640.42
845.898	4086.47
846.082	3081.73
846.266	3256.42
846.45	3638.57
846.634	3691.62
846.818	3231.85
847.002	3450.37
847.186	3797.29
847.37	3279.57
847.554	3131.09
847.738	3471.46
847.922	3681.38
848.106	3668.48
848.29	3151.98
848.473	3241.06
848.657	3743.02
848.841	3461.22
849.025	3223.25
849.209	3026.85
849.392	3805.48
849.576	3443.2
849.76	2915.03
849.944	3412.07
850.127	3991.03
850.311	3301.89
850.495	3069.65
850.678	2988.75
850.862	3816.13
851.046	3907.88
851.229	3542.12
851.413	3085.62
851.596	3619.53
851.78	3452.82
851.964	3367.22
852.147	3211.98
852.331	4339.18
852.514	3897.85
852.698	3304.76
852.881	2998.99
853.065	3711.89
853.248	3512.22
853.431	3312.33
853.615	3263.8
853.798	4258.29
853.982	3603.35
854.165	3429.07
854.348	3106.51
854.532	3150.54
854.715	3376.64
854.898	3151.36
855.081	3167.75
855.265	3859.35
855.448	3977.92
855.631	3036.27
855.814	3132.11
855.997	3647.79
856.181	3430.91
856.364	3195.6
856.547	2944.52
856.73	3599.66
856.913	3499.31
857.096	2973.39
857.279	3200.1
857.462	3285.1
857.645	3688.14
857.828	3304.55
858.011	3259.7
858.194	3355.96
858.377	3517.74
858.56	2980.36
858.743	3081.73
858.926	3232.05
859.109	3496.65
859.292	3016.2
859.475	2849.7
859.658	3625.06
859.841	3557.07
860.023	2913.39
860.206	2886.36
860.389	3428.66
860.572	3639.8
860.755	3092.18
860.937	3080.5
861.12	3278.34
861.303	3370.7
861.486	3079.48
861.668	3049.58
861.851	3420.06
862.034	3542.53
862.216	3183.11
862.399	2797.68
862.581	3470.03
862.764	3671.75
862.947	3009.23
863.129	2854.82
863.312	3031.76
863.494	3626.49
863.677	3339.98
863.859	2683.61
864.042	3543.55
864.224	3506.89
864.406	3089.72
864.589	2716.17
864.771	3342.85
864.954	3017.84
865.136	2978.92
865.318	2653.91
865.501	3517.95
865.683	2800.14
865.865	2882.26
866.048	2840.28
866.23	3400.4
866.412	3171.64
866.594	2731.32
866.777	3005.34
866.959	3351.24
867.141	3046.51
867.323	3121.26
867.505	3034.22
867.687	3176.55
867.869	3257.04
868.052	2870.59
868.234	2790.1
868.416	3189.05
868.598	3430.71
868.78	2880.42
868.962	2660.67
869.144	3465.32
869.326	3390.36
869.508	2886.77
869.69	2712.28
869.872	2987.94
870.054	3539.45
870.236	2613.77
870.417	2714.53
870.599	3128.02
870.781	3663.97
870.963	3034.01
871.145	2821.23
871.327	2962.34
871.508	3440.54
871.69	2870.38
871.872	2892.91
872.054	3153.82
872.235	3287.96
872.417	2987.32
872.599	2644.7
872.78	3715.17
872.962	3195.8
873.144	2618.69
873.325	2872.02
873.507	3591.68
873.689	3210.55
873.87	2764.5
874.052	3009.23
874.233	3179.63
874.415	3601.3
874.596	2995.51
874.778	2785.8
874.959	3319.09
875.141	3527.98
875.322	2930.39
875.503	2760.61
875.685	3406.34
875.866	2798.29
876.048	2832.08
876.229	2763.07
876.41	3195.19
876.592	3393.84
876.773	2957.22
876.954	2664.97
877.136	3653.93
877.317	3120.23
877.498	2721.7
877.679	3028.89
877.86	3412.89
878.042	3218.13
878.223	2894.14
878.404	3348.79
878.585	3465.32
878.766	3798.32
878.947	3279.16
879.128	3158.74
879.309	3467.16
879.49	3675.64
879.672	3084.19
879.853	3026.85
880.034	3118.6
880.215	3326.87
880.396	3069.03
880.576	2944.11
880.757	3179.63
880.938	3730.94
881.119	2879.39
881.3	2937.15
881.481	3243.52
881.662	4268.12
881.843	2846.01
882.023	2814.68
882.204	3557.68
882.385	3370.7
882.566	2952.3
882.747	2968.27
882.927	3345.1
883.108	3411.86
883.289	2932.44
883.469	3253.97
883.65	3249.87
883.831	3386.88
884.011	3248.23
884.192	2943.49
884.373	3647.59
884.553	3500.13
884.734	3269.94
884.914	3478.01
885.095	4349.22
885.275	3791.56
885.456	3362.92
885.636	2894.75
885.817	3376.84
885.997	3444.84
886.178	2986.91
886.358	3117.57
886.538	3450.98
886.719	4717.04
886.899	3020.29
887.08	3196.21
887.26	3717.63
887.44	3142.56
887.621	2989.78
887.801	3226.73
887.981	4013.56
888.161	3660.08
888.342	3157.3
888.522	3158.94
888.702	3751.42
888.882	3786.23
889.062	3291.65
889.242	2844.78
889.423	3930.82
889.603	3623.62
889.783	3226.93
889.963	3132.11
890.143	3618.71
890.323	3770.87
890.503	3084.8
890.683	3191.91
890.863	3480.06
891.043	3434.19
891.223	3249.26
891.403	3372.13
891.583	3583.07
891.763	3604.78
891.943	3259.5
892.122	3196.83
892.302	3546.83
892.482	3411.86
892.662	3364.56
892.842	3255.4
893.022	3555.84
893.201	3450.16
893.381	3334.45
893.561	3145.42
893.741	3762.07
893.92	3539.04
894.1	3408.18
894.28	3251.3
894.459	3798.73
894.639	3586.56
894.819	3211.78
894.998	3245.98
895.178	3671.34
895.357	3550.51
895.537	3173.89
895.716	3014.97
895.896	3492.15
896.075	3933.07
896.255	3183.52
896.434	2910.52
896.614	3914.85
896.793	3839.07
896.973	3417.39
897.152	3315.61
897.331	3519.18
897.511	3714.96
897.69	2928.34
897.87	3294.52
898.049	3668.48
898.228	3517.54
898.407	3376.43
898.587	3330.97
898.766	3333.84
898.945	3691
899.124	3531.88
899.304	3292.26
899.483	3735.85
899.662	3998.81
899.841	3116.14
900.02	3149.11
900.199	3800.16
900.378	3549.9
900.557	3102.01
900.737	3012.92
900.916	3536.79
901.095	3631.41
901.274	3476.38
901.453	2958.85
901.632	3205.02
901.811	3215.05
901.989	3101.39
902.168	3018.45
902.347	3689.98
902.526	3310.49
902.705	3099.75
902.884	3276.7
903.063	3909.93
903.242	3772.1
903.42	3015.99
903.599	3295.95
903.778	3647.38
903.957	3865.08
904.135	3300.66
904.314	3204.82
904.493	3517.95
904.672	3435.01
904.85	3208.3
905.029	3063.71
905.207	3533.51
905.386	4113.5
905.565	2866.29
905.743	3018.04
905.922	3327.9
906.1	3573.24
906.279	2903.35
906.457	2991.01
906.636	3303.53
906.814	3290.83
906.993	3055.52
907.171	2920.15
907.35	3516.31
907.528	3643.49
907.707	3327.28
907.885	2843.35
908.063	3732.78
908.242	3156.07
908.42	2948.82
908.598	2689.34
908.777	3495.01
908.955	3100.57
909.133	3163.04
909.311	2804.23
909.49	3166.93
909.668	3236.35
909.846	2910.11
910.024	2689.34
910.202	3310.29
910.38	3442.17
910.559	2788.46
910.737	2830.24
910.915	3305.58
911.093	3301.27
911.271	2893.32
911.449	3031.15
911.627	3347.35
911.805	3845.21
911.983	2880.83
912.161	2763.27
912.339	3212.39
912.517	3555.84
912.695	3042.62
912.872	2910.32
913.05	3079.27
913.228	3307.01
913.406	2836.18
913.584	2741.77
913.762	3440.54
913.939	3064.32
914.117	2744.02
914.295	2673.98
914.473	3186.38
914.65	3270.76
914.828	2775.36
915.006	2719.04
915.184	2883.49
915.361	3223.25
915.539	2968.07
915.716	3001.86
915.894	3205.22
916.072	3322.98
916.249	3172.66
916.427	2949.02
916.604	2823.48
916.782	3293.7
916.959	2661.9
917.137	2716.17
917.314	3083.17
917.492	3088.9
917.669	2873.86
917.847	2764.91
918.024	3109.79
918.201	2773.1
918.379	2791.74
918.556	2716.17
918.733	3179.01
918.911	2822.87
919.088	2902.13
919.265	2628.31
919.442	3043.23
919.62	3015.58
919.797	2576.91
919.974	2508.71
920.151	3115.32
920.328	2954.55
920.506	2573.43
920.683	3204.82
920.86	2695.89
921.037	2761.84
921.214	2683.4
921.391	2532.26
921.568	3100.16
921.745	2705.32
921.922	2649
922.099	2555.4
922.276	3042.82
922.453	2865.88
922.63	2485.57
922.807	2942.88
922.984	2907.45
923.161	2718.42
923.338	2581.21
923.514	2395.87
923.691	2911.14
923.868	3014.15
924.045	2492.12
924.222	2404.88
924.399	2885.13
924.575	3030.12
924.752	2552.13
924.929	2576.5
925.105	2827.99
925.282	2587.97
925.459	2565.03
925.635	2505.23
925.812	2846.22
925.989	2581.41
926.165	2565.85
926.342	2257.02
926.518	2512.81
926.695	2694.26
926.871	2368.02
927.048	2277.9
927.224	2982
927.401	2593.91
927.577	2502.16
927.754	2214.01
927.93	2948
928.107	2934.07
928.283	2284.66
928.459	2515.06
928.636	2861.78
928.812	2634.66
928.988	2253.12
929.165	2095.43
929.341	2609.27
929.517	2691.8
929.693	2760.82
929.87	2097.68
930.046	2793.17
930.222	2495.6
930.398	2184.72
930.574	2462.43
930.751	2570.97
930.927	2510.35
931.103	2308.21
931.279	2344.67
931.455	2364.74
931.631	2665.79
931.807	2083.96
931.983	2049.76
932.159	2215.03
932.335	2591.04
932.511	2233.26
932.687	2178.58
932.863	2566.26
933.039	2600.66
933.215	2087.44
933.391	2014.33
933.566	2448.91
933.742	2545.16
933.918	2217.69
934.094	2004.3
934.27	2482.5
934.445	2498.47
934.621	2336.07
934.797	2065.53
934.973	2653.5
935.148	2449.93
935.324	1982.79
935.5	1842.3
935.675	2695.49
935.851	2538.41
936.027	2246.78
936.202	2171.82
936.378	2586.94
936.553	2384.6
936.729	2681.97
936.904	2033.58
937.08	2135.16
937.255	2185.13
937.431	2092.77
937.606	1918.9
937.782	2262.75
937.957	2429.66
938.133	2167.11
938.308	2037.47
938.483	2344.26
938.659	2090.31
938.834	2210.12
939.009	1942.04
939.185	2334.84
939.36	2054.27
939.535	1684.61
939.71	2172.64
939.886	2616.02
940.061	2382.76
940.236	2320.91
940.411	2068.4
940.586	2348.56
940.761	2472.87
940.937	2127.58
941.112	1912.55
941.287	2262.54
941.462	2225.48
941.637	1819.36
941.812	2034.61
941.987	2304.53
942.162	2174.07
942.337	2121.03
942.512	1887.15
942.687	2528.17
942.862	2361.05
943.037	1709.39
943.212	1602.89
943.386	2127.17
943.561	2251.69
943.736	2091.95
943.911	2349.38
944.086	2400.37
944.26	2206.23
944.435	1887.15
944.61	2048.12
944.785	2313.95
944.959	2681.97
945.134	1912.14
945.309	1773.08
945.483	1910.7
945.658	2349.38
945.833	1506.43
946.007	1629.93
946.182	2509.32
946.357	1883.88
946.531	1717.38
946.706	1754.44
946.88	1660.24
947.055	2165.47
947.229	1730.89
947.404	1660.85
947.578	2185.13
947.752	1938.15
947.927	1639.35
948.101	1534.08
948.276	2363.71
948.45	2080.69
948.624	1956.78
948.799	1611.09
948.973	2066.76
949.147	1683.99
949.321	1712.67
949.496	1717.99
949.67	2352.86
949.844	1900.46
950.018	1655.53
950.193	1663.1
950.367	2522.02
950.541	1835.95
950.715	1737.24
950.889	1799.29
951.063	1843.94
951.237	2078.84
951.411	1424.11
951.585	1469.57
951.759	2009.21
951.933	1918.69
952.107	1511.96
952.281	1721.88
952.455	2249.85
952.629	2073.72
952.803	1575.25
952.977	1519.75
953.151	2014.74
953.325	1814.65
953.499	1696.28
953.672	1339.73
953.846	1657.78
954.02	1712.87
954.194	1430.25
954.368	1445.2
954.541	1968.87
954.715	1665.56
954.889	1629.11
955.062	1362.87
955.236	1676.21
955.41	1671.3
955.583	1676.21
955.757	1269.69
955.93	1672.73
956.104	1468.34
956.278	1411.61
956.451	1441.1
956.625	1858.28
956.798	2178.37
956.972	1809.33
957.145	1288.12
957.319	1834.11
957.492	1691.16
957.665	1650.2
957.839	1326.21
958.012	1781.27
958.185	1535.11
958.359	1430.66
958.532	1637.71
958.705	1797.66
958.879	1722.7
959.052	1488.41
959.225	1136.98
959.398	1697.71
959.572	1731.71
959.745	1293.86
959.918	1342.19
960.091	1629.72
960.264	1789.46
960.438	1249.82
960.611	1217.26
960.784	1872.2
960.957	1441.1
961.13	1807.69
961.303	1244.91
961.476	1545.14
961.649	1925.45
961.822	1193.3
961.995	1408.13
962.168	1606.58
962.341	1723.93
962.514	1313.93
962.686	1224.43
962.859	1603.51
963.032	1709.8
963.205	1310.65
963.378	1010.21
963.551	1650.82
963.723	1480.84
963.896	1405.67
964.069	1420.83
964.242	1570.33
964.414	1877.73
964.587	1295.49
964.76	1379.05
964.932	1589.17
965.105	1491.07
965.278	1230.37
965.45	1159.3
965.623	1589.38
965.795	1643.85
965.968	1238.15
966.14	1175.89
966.313	1460.15
966.485	1516.26
966.658	1143.12
966.83	1130.84
967.003	1684.4
967.175	1616.62
967.348	1164.83
967.52	1191.87
967.692	1895.55
967.865	1645.9
968.037	1172.21
968.209	1461.99
968.382	1504.59
968.554	1669.86
968.726	1183.27
968.898	1072.06
969.071	1550.47
969.243	1538.18
969.415	1179.17
969.587	1281.36
969.759	1888.59
969.932	1531.22
970.104	1169.54
970.276	816.88
970.448	1290.37
970.62	1292.01
970.792	1256.38
970.964	1172.41
971.136	1854.38
971.308	1483.29
971.48	1002.02
971.652	1051.79
971.824	1742.16
971.996	1297.54
972.168	1103.39
972.339	1122.24
972.511	1510.94
972.683	1363.9
972.855	1377.41
973.027	1032.53
973.199	1416.73
973.37	1553.95
973.542	1216.85
973.714	1290.99
973.886	1247.37
974.057	1543.5
974.229	993.62
974.401	1021.89
974.572	1145.38
974.744	906.58
974.915	914.98
975.087	986.46
975.259	1679.9
975.43	1137.8
975.602	968.64
975.773	919.28
975.945	1087.63
976.116	1500.5
976.288	891.02
976.459	1209.89
976.63	1150.09
976.802	1317.82
976.973	877.3
977.145	1174.25
977.316	1767.35
977.487	1338.91
977.659	1105.24
977.83	1020.45
978.001	1681.33
978.172	1364.92
978.344	880.37
978.515	978.06
978.686	1115.27
978.857	1641.81
979.028	935.67
979.2	835.11
979.371	1531.62
979.542	1145.17
979.713	1089.47
979.884	521.77
980.055	1029.87
980.226	1136.16
980.397	895.12
980.568	788.42
980.739	1441.1
980.91	1084.55
981.081	1096.43
981.252	869.11
981.423	1237.95
981.594	1276.45
981.765	807.05
981.936	1029.46
982.106	1200.47
982.277	1469.78
982.448	797.22
982.619	1061.21
982.79	953.69
982.96	1305.73
983.131	1007.96
983.302	580.55
983.472	1052.81
983.643	1204.56
983.814	970.28
983.984	800.5
984.155	1077.18
984.326	1300.2
984.496	959.42
984.667	859.69
984.837	872.38
985.008	1422.47
985.178	1145.99
985.349	833.06
985.519	1056.09
985.69	865.83
985.86	823.44
986.031	749.51
986.201	1175.89
986.371	1170.98
986.542	610.45
986.712	530.58
986.882	1170.98
987.053	1157.05
987.223	671.89
987.393	1024.96
987.563	915.6
987.734	1218.7
987.904	1133.91
988.074	672.71
988.244	1041.55
988.414	916.01
988.585	651.2
988.755	861.53
988.925	1004.48
989.095	1424.72
989.265	610.24
989.435	805.41
989.605	1189.61
989.775	1174.66
989.945	1080.25
990.115	533.44
990.285	967.2
990.455	1030.69
990.625	826.92
990.795	608.61
990.965	1323.55
991.134	754.01
991.304	581.98
991.474	569.69
991.644	1047.28
991.814	1333.38
991.984	446.61
992.153	595.29
992.323	848.83
992.493	999.97
992.662	431.87
992.832	802.34
993.002	906.79
993.171	1044.21
993.341	381.28
993.511	627.65
993.68	763.02
993.85	1093.77
994.019	423.06
994.189	433.09
994.358	939.76
994.528	789.44
994.697	293.83
994.867	461.56
995.036	1055.68
995.206	755.65
995.375	465.04
995.544	740.7
995.714	1082.91
995.883	820.16
996.052	776.95
996.222	245.3
996.391	1293.45
996.56	892.66
996.73	449.68
996.899	390.5
997.068	1217.26
997.237	868.49
997.406	403.6
997.576	442.92
997.745	996.29
997.914	820.77
998.083	164.61
998.252	468.11
998.421	906.99
998.59	584.64
998.759	344.83
998.928	228.91
999.097	1108.51
999.266	912.52
999.435	636.46
999.604	182.42
999.773	1248.39
999.942	720.01
1000.111	179.97
1000.28	224.2
1000.448	524.84
1000.617	531.6
1000.786	633.39
1000.955	277.24
1001.124	917.44
1001.292	1440.49
1001.461	404.83
1001.63	287.07
1001.798	1037.04
1001.967	1014.92
1002.136	247.14
1002.304	294.04
1002.473	769.17
1002.642	730.46
1002.81	416.92
1002.979	439.65
1003.147	972.53
1003.316	1220.74
1003.484	336.43
1003.653	258.61
1003.821	954.51
1003.99	636.66
1004.158	534.67
1004.327	464.84
1004.495	865.63
1004.663	590.17
1004.832	517.27
1005	187.75
1005.168	806.64
1005.337	698.31
1005.505	123.24
1005.673	535.9
1005.842	870.95
1006.01	744.18
1006.178	188.57
1006.346	281.13
1006.514	744.39
1006.683	1091.11
1006.851	287.28
1007.019	414.66
1007.187	397.87
1007.355	190.61
1007.523	64.87
1007.691	131.84
1007.859	333.36
1008.027	1023.52
1008.195	203.31
1008.363	97.23
1008.531	715.71
1008.699	598.37
1008.867	67.33
1009.035	199.63
1009.203	985.84
1009.37	622.33
1009.538	220.11
1009.706	775.51
1009.874	641.17
1010.042	615.57
1010.209	82.89
1010.377	82.28
1010.545	781.45
1010.713	643.63
1010.88	141.05
1011.048	203.52
1011.216	536.93
1011.383	930.34
1011.551	174.23
1011.718	80.84
1011.886	822.21
1012.054	633.39
1012.221	93.34
1012.389	96.41
1012.556	570.31
1012.724	966.59
1012.891	279.91
1013.058	-85.86
1013.226	694.21
1013.393	736.6
1013.561	-11.11
1013.728	-23.19
1013.895	876.89
1014.063	714.69
1014.23	-36.3
1014.397	131.22
1014.565	764.25
1014.732	478.56
1014.899	45.82
1015.066	2.2
1015.233	624.17
1015.401	737.01
1015.568	178.33
1015.735	280.93
1015.902	654.27
1016.069	849.45
1016.236	126.92
1016.403	-8.04
1016.57	274.99
1016.737	859.89
1016.904	124.67
1017.071	-19.92
1017.238	330.08
1017.405	690.93
1017.572	120.37
1017.739	346.26
1017.906	747.25
1018.073	782.68
1018.24	-21.35
1018.407	166.04
1018.573	691.55
1018.74	477.33
1018.907	174.23
1019.074	-137.27
1019.241	699.13
1019.407	513.37
1019.574	19.4
1019.741	-60.88
1019.907	651.2
1020.074	886.31
1020.241	-240.69
1020.407	-55.55
1020.574	526.89
1020.74	587.72
1020.907	39.68
1021.073	-24.22
1021.24	1096.43
1021.406	766.09
1021.573	-93.85
1021.739	26.37
1021.906	755.85
1022.072	444.15
1022.239	43.57
1022.405	72.24
1022.571	512.35
1022.738	303.25
1022.904	23.91
1023.07	125.69
1023.237	478.56
1023.403	785.34
1023.569	61.59
1023.735	67.33
1023.902	543.27
1024.068	542.66
1024.234	-147.91
1024.4	11.83
1024.566	455.42
1024.732	598.37
1024.898	18.38
1025.065	-201.37
1025.231	573.79
1025.397	321.07
1025.563	34.56
1025.729	-95.28
1025.895	-64.15
1026.061	195.12
1026.227	-220.62
1026.392	12.85
1026.558	638.1
1026.724	572.77
1026.89	-40.19
1027.056	56.88
1027.222	465.04
1027.388	369.61
1027.553	0.15
1027.719	-93.64
1027.885	843.92
1028.051	506.62
1028.216	-256.05
1028.382	0.36
1028.548	593.86
1028.713	325.58
1028.879	-189.28
1029.045	147.4
1029.21	754.63
1029.376	653.66
1029.541	-16.23
1029.707	-37.94
1029.873	583.21
1030.038	628.06
1030.204	-84.63
1030.369	-28.72
1030.534	575.43
1030.7	294.45
1030.865	15.92
1031.031	-154.26
1031.196	483.27
1031.361	418.55
1031.527	-98.35
1031.692	-77.46
1031.857	-22.37
1032.023	528.94
1032.188	-133.37
1032.353	-54.32
1032.518	731.48
1032.684	391.52
1032.849	-232.91
1033.014	1.59
1033.179	473.44
1033.344	507.23
1033.509	33.74
1033.674	-72.55
1033.839	546.35
1034.004	531.19
1034.17	-78.9
1034.335	-197.88
1034.5	288.51
1034.664	240.59
1034.829	-144.84
1034.994	-3.12
1035.159	322.91
1035.324	472.62
1035.489	-56.78
1035.654	-125.39
1035.819	779.82
1035.984	405.86
1036.148	-21.35
1036.313	-85.86
1036.478	606.35
1036.643	327.83
1036.807	-110.23
1036.972	-214.27
1037.137	802.14
1037.301	361.42
1037.466	-347.39
1037.631	16.74
1037.795	588.74
1037.96	337.66
1038.124	124.67
1038.289	-230.86
1038.454	462.38
1038.618	522.18
1038.783	-16.03
1038.947	-13.98
1039.111	340.53
1039.276	295.47
1039.44	-149.14
1039.605	456.03
1039.769	260.66
1039.933	305.3
1040.098	-52.27
1040.262	183.04
1040.426	593.65
1040.591	464.84
1040.755	-188.87
1040.919	-42.24
1041.083	524.02
1041.248	294.24
1041.412	-279.19
1041.576	-188.87
1041.74	278.47
1041.904	454.39
1042.068	-163.48
1042.232	-84.02
1042.397	626.42
1042.561	408.52
1042.725	-375.44
1042.889	84.53
1043.053	465.86
1043.217	396.03
1043.381	-57.39
1043.544	-265.67
1043.708	550.03
1043.872	87.6
1044.036	-390.19
1044.2	-267.93
1044.364	589.56
1044.528	632.36
1044.691	4646.38
1044.855	-246.01
1045.019	503.13
1045.183	490.64
1045.346	-74.19
1045.51	-256.87
1045.674	454.19
1045.837	480.81
1046.001	-139.93
1046.165	-128.46
1046.328	855.79
1046.492	363.67
1046.655	99.28
1046.819	-52.68
1046.983	207.41
1047.146	351.79
1047.31	-36.3
1047.473	-374.42
1047.636	324.55
1047.8	111.36
1047.963	-80.95
1048.127	-221.64
1048.29	106.44
