Data from USB4F045381__2__11-14-32-985.txt Node

Date: Wed Apr 24 11:14:32 EDT 2024
User: dsalmieri
Spectrometer: USB4F04538
Trigger mode: 4
Integration Time (sec): 1.000000E0
Scans to average: 10
Electric dark correction enabled: true
Nonlinearity correction enabled: false
Boxcar width: 0
XAxis mode: Wavelengths
Number of Pixels in Spectrum: 3648
>>>>>Begin Spectral Data<<<<<
345.52	-1081.48
345.736	-1081.48
345.952	-1081.48
346.168	-1114.86
346.384	-1091.52
346.6	-176.89
346.816	-245.5
347.032	-183.04
347.248	386.71
347.464	-254.51
347.68	-162.15
347.896	68.25
348.112	383.64
348.328	-103.78
348.544	-68.35
348.76	94.05
348.975	261.58
349.191	-268.44
349.407	-275.2
349.623	77.46
349.839	-50.53
350.055	-195.53
350.27	-14.9
350.486	163.48
350.702	274.89
350.918	210.17
351.133	-194.3
351.349	136.04
351.565	444.26
351.781	-322.91
351.996	-34.56
352.212	233.52
352.428	-103.99
352.644	-252.67
352.859	-241.81
353.075	274.07
353.291	101.02
353.506	-174.64
353.722	-315.13
353.938	-59.54
354.153	413.54
354.369	111.05
354.584	-254.1
354.8	290.86
355.016	-287.89
355.231	-313.08
355.447	-107.47
355.662	171.47
355.878	705.99
356.093	-426.75
356.309	-83.1
356.524	-219.7
356.74	289.63
356.955	-307.76
357.171	-46.03
357.386	157.95
357.602	-212.32
357.817	-140.44
358.033	-235.26
358.248	338.58
358.464	201.98
358.679	-210.28
358.895	-385.58
359.11	-11.83
359.325	249.08
359.541	247.45
359.756	-65.07
359.972	-308.58
360.187	252.16
360.402	-269.26
360.618	-211.71
360.833	1082.4
361.048	135.83
361.264	-227.07
361.479	-81.25
361.694	34.46
361.909	205.26
362.125	-254.72
362.34	-189.39
362.555	227.58
362.77	110.03
362.986	-340.32
363.201	-250.62
363.416	175.15
363.631	-3.84
363.847	-237.51
364.062	-218.67
364.277	182.32
364.492	47.77
364.707	-205.97
364.922	-428.59
365.138	217.34
365.353	322.81
365.568	-357.73
365.783	-199.83
365.998	164.91
366.213	549.73
366.428	-314.11
366.643	30.36
366.858	281.24
367.073	218.36
367.288	-172.39
367.503	-287.28
367.718	64.15
367.933	352.92
368.148	-342.78
368.363	-114.43
368.578	19.71
368.793	456.34
369.008	-207.41
369.223	-326.19
369.438	224.51
369.653	340.83
369.868	-328.24
370.083	-302.02
370.298	127.43
370.513	384.05
370.728	-5.27
370.943	-269.46
371.157	-130.61
371.372	565.5
371.587	-370.84
371.802	-339.71
372.017	47.36
372.232	429.72
372.446	-99.07
372.661	-301.21
372.876	171.47
373.091	201.78
373.306	-155.18
373.52	-334.18
373.735	-136.96
373.95	448.15
374.165	-210.68
374.379	-210.07
374.594	-114.43
374.809	168.19
375.023	10.09
375.238	-285.23
375.453	273.86
375.667	-255.74
375.882	-243.25
376.097	-267.41
376.311	16.23
376.526	40.6
376.741	-281.75
376.955	87.91
377.17	511.43
377.384	681
377.599	-90.67
377.813	-369.81
378.028	575.94
378.242	218.16
378.457	-132.66
378.672	-392.54
378.886	13.16
379.101	-29.85
379.315	-437.19
379.53	-219.7
379.744	246.01
379.958	201.16
380.173	-236.69
380.387	-269.26
380.602	207.51
380.816	-118.73
381.031	-218.67
381.245	-188.16
381.459	186.62
381.674	3110.1
381.888	-286.87
382.103	91.19
382.317	-182.83
382.531	411.28
382.746	-137.98
382.96	-261.47
383.174	-43.16
383.388	474.16
383.603	12.54
383.817	-387.42
384.031	132.96
384.246	451.63
384.46	-64.05
384.674	361.72
384.888	-29.44
385.103	85.86
385.317	-357.73
385.531	-63.85
385.745	422.55
385.959	297.62
386.174	-263.11
386.388	-294.45
386.602	15.62
386.816	-122.21
387.03	-142.49
387.244	-173.62
387.458	106.75
387.672	335.3
387.887	-378.41
388.101	-339.5
388.315	290.25
388.529	116.38
388.743	-228.3
388.957	-294.65
389.171	327.73
389.385	-170.54
389.599	-235.06
389.813	-4.25
390.027	177
390.241	635.13
390.455	-208.43
390.669	-172.8
390.883	-77.16
391.097	477.64
391.311	-13.26
391.525	-225.63
391.738	256.25
391.952	245.19
392.166	-108.29
392.38	-329.26
392.594	275.3
392.808	277.35
393.022	-163.17
393.236	-213.55
393.449	208.33
393.663	213.45
393.877	-326.19
394.091	-163.58
394.305	83.2
394.518	-94.36
394.732	-348.1
394.946	-181.4
395.16	484.81
395.373	122.11
395.587	-312.88
395.801	-259.63
396.015	284.31
396.228	201.57
396.442	-363.87
396.656	-445.59
396.869	306.43
397.083	486.03
397.297	-141.46
397.51	-218.67
397.724	269.15
397.938	149.96
398.151	-410.57
398.365	-372.27
398.578	227.58
398.792	369.1
399.005	-80.64
399.219	-208.43
399.433	127.43
399.646	259.12
399.86	-22.68
400.073	-22.07
400.287	197.68
400.5	27.7
400.714	-31.9
400.927	-123.65
401.141	237.82
401.354	1188.69
401.567	189.9
401.781	-339.3
401.994	227.58
402.208	588.64
402.421	-162.97
402.635	-208.43
402.848	-34.97
403.061	289.84
403.275	-142.9
403.488	-311.24
403.701	443.03
403.915	298.44
404.128	-29.64
404.341	-249.39
404.555	269.36
404.768	-39.88
404.981	-28.21
405.195	-238.13
405.408	443.44
405.621	257.89
405.834	-14.9
406.048	-341.96
406.261	387.32
406.474	386.09
406.687	-287.48
406.9	-98.87
407.114	81.77
407.327	225.53
407.54	-377.39
407.753	-389.88
407.966	-159.49
408.179	188.05
408.392	-269.87
408.605	-423.06
408.819	150.99
409.032	201.16
409.245	-212.94
409.458	-24.93
409.671	235.57
409.884	253.79
410.097	-365.51
410.31	-45.41
410.523	255.64
410.736	20.53
410.949	-180.78
411.162	-203.31
411.375	375.65
411.588	240.48
411.801	-41.32
412.014	-224
412.227	13.36
412.44	-19.81
412.653	-208.43
412.865	-48.08
413.078	354.14
413.291	206.9
413.504	-147.81
413.717	-293.01
413.93	302.54
414.143	-117.91
414.356	-146.17
414.568	-372.47
414.781	268.34
414.994	149.96
415.207	-126.31
415.42	-145.35
415.632	218.57
415.845	508.56
416.058	-338.07
416.271	-342.16
416.483	95.49
416.696	512.04
416.909	-314.31
417.121	-276.83
417.334	97.33
417.547	447.12
417.759	-289.94
417.972	-291.17
418.185	-77.98
418.397	252.98
418.61	-261.27
418.823	-256.97
419.035	415.38
419.248	96.51
419.46	-197.17
419.673	-113
419.885	112.89
420.098	49
420.311	-232.39
420.523	-477.13
420.736	206.49
420.948	59.24
421.161	-241.2
421.373	-413.23
421.586	-45
421.798	-98.46
422.01	-391.73
422.223	-94.36
422.435	-84.53
422.648	289.02
422.86	-261.27
423.073	-239.36
423.285	208.12
423.497	-244.89
423.71	-271.92
423.922	-262.09
424.134	348
424.347	454.7
424.559	-36.61
424.771	85.25
424.984	14.59
425.196	232.5
425.408	-418.96
425.621	-348.92
425.833	320.15
426.045	375.44
426.257	-344.42
426.47	-224.82
426.682	66
426.894	177.61
427.106	-266.8
427.318	-186.93
427.531	-57.91
427.743	220.21
427.955	-182.42
428.167	255.23
428.379	140.13
428.591	11.11
428.804	-143.92
429.016	-297.31
429.228	-16.95
429.44	166.35
429.652	-45.82
429.864	-367.35
430.076	26.67
430.288	24.01
430.5	-193.69
430.712	-125.9
430.924	281.65
431.136	179.25
431.348	-408.31
431.56	-246.11
431.772	13.57
431.984	-42.55
432.196	-316.97
432.408	-270.9
432.62	-6.5
432.832	219.59
433.044	63.54
433.256	-116.48
433.468	214.88
433.679	-244.48
433.891	-355.07
434.103	-16.33
434.315	252.16
434.527	241.1
434.739	-111.15
434.95	-227.07
435.162	253.59
435.374	-106.85
435.586	-193.07
435.798	-257.17
436.009	-181.19
436.221	-41.73
436.433	-230.96
436.645	-192.66
436.856	-24.32
437.068	322.61
437.28	-287.69
437.491	37.53
437.703	261.17
437.915	176.79
438.126	-203.52
438.338	76.65
438.55	20.12
438.761	152.01
438.973	-194.71
439.184	-189.18
439.396	42.44
439.608	276.32
439.819	-299.36
440.031	-118.12
440.242	263.01
440.454	262.19
440.665	-208.02
440.877	-108.49
441.088	246.63
441.3	39.99
441.511	-386.2
441.723	-280.11
441.934	150.99
442.146	117.6
442.357	-59.54
442.569	84.63
442.78	109.41
442.991	506.72
443.203	119.45
443.414	-314.31
443.626	523.1
443.837	-73.27
444.048	-311.44
444.26	-375.14
444.471	162.46
444.682	274.48
444.894	-370.22
445.105	-362.03
445.316	343.29
445.528	213.04
445.739	-103.37
445.95	-117.91
446.161	169.83
446.373	307.25
446.584	-189.18
446.795	-227.48
447.006	278.78
447.217	440.77
447.429	-363.46
447.64	-300.59
447.851	479.07
448.062	156.52
448.273	-360.19
448.484	-257.99
448.695	245.4
448.907	142.79
449.118	-122.62
449.329	32.41
449.54	-5.68
449.751	-65.69
449.962	-208.84
450.173	-223.59
450.384	354.96
450.595	409.64
450.806	-242.22
451.017	-187.54
451.228	395.1
451.439	338.99
451.65	-193.69
451.861	-446.2
452.072	-103.99
452.283	70.91
452.494	-46.44
452.705	-264.75
452.915	491.97
453.126	173.1
453.337	-166.04
453.548	-297.93
453.759	392.24
453.97	540.51
454.181	49.82
454.391	-201.26
454.602	192.36
454.813	257.48
455.024	-154.78
455.235	-257.17
455.445	281.44
455.656	208.94
455.867	-65.48
456.078	-239.36
456.288	66.2
456.499	271
456.71	-278.27
456.921	9.47
457.131	202.8
457.342	149.76
457.553	-154.78
457.763	-225.23
457.974	231.06
458.184	277.76
458.395	-283.8
458.606	-268.44
458.816	396.33
459.027	551.77
459.237	-62.41
459.448	-385.99
459.659	358.45
459.869	690.22
460.08	-385.79
460.29	-86.17
460.501	517.16
460.711	-19.61
460.922	-349.33
461.132	-289.94
461.343	762.51
461.553	-202.9
461.764	-281.54
461.974	-250.62
462.184	337.76
462.395	218.77
462.605	-200.44
462.816	-313.29
463.026	177.2
463.236	325.06
463.447	-300.18
463.657	-259.02
463.867	333.87
464.078	33.23
464.288	-220.11
464.498	-289.33
464.709	96.31
464.919	104.09
465.129	-202.29
465.339	-314.93
465.55	213.45
465.76	303.76
465.97	-203.52
466.18	-285.23
466.391	333.87
466.601	197.07
466.811	-182.22
467.021	-339.91
467.231	180.89
467.441	381.18
467.651	-195.94
467.862	-493.92
468.072	103.88
468.282	356.81
468.492	-254.92
468.702	-177.1
468.912	86.68
469.122	703.32
469.332	60.67
469.542	-300.39
469.752	350.66
469.962	136.86
470.172	-311.65
470.382	-296.09
470.592	327.32
470.802	333.67
471.012	-91.9
471.222	-279.09
471.432	291.48
471.642	302.13
471.852	-129.59
472.062	-331.51
472.272	29.54
472.482	-139.42
472.691	-317.59
472.901	-358.96
473.111	93.44
473.321	618.95
473.531	-343.39
473.741	-136.55
473.95	230.65
474.16	287.59
474.37	-145.35
474.58	-347.9
474.79	571.64
474.999	283.29
475.209	-300.18
475.419	-244.68
475.628	44.29
475.838	383.23
476.048	-153.96
476.258	-350.77
476.467	390.8
476.677	-14.08
476.886	-13.67
477.096	-140.23
477.306	0.87
477.515	435.65
477.725	-134.91
477.935	-166.24
478.144	482.55
478.354	5.99
478.563	-211.91
478.773	-292.4
478.982	311.34
479.192	340.83
479.401	-131.22
479.611	-317.38
479.82	-103.37
480.03	206.9
480.239	-290.35
480.449	-364.9
480.658	476.82
480.868	-48.9
481.077	-144.54
481.287	-206.79
481.496	228.4
481.705	467.6
481.915	27.7
482.124	18.89
482.333	233.11
482.543	521.05
482.752	-118.73
482.961	-275.81
483.171	330.39
483.38	88.32
483.589	-182.22
483.799	-272.33
484.008	109.62
484.217	269.77
484.426	-193.48
484.636	-338.27
484.845	366.64
485.054	-177.3
485.263	83.81
485.472	-191.02
485.682	469.04
485.891	171.67
486.1	-344.62
486.309	-245.5
486.518	329.77
486.727	476.41
486.936	-266.18
487.146	-70.6
487.355	486.44
487.564	-85.14
487.773	-177.71
487.982	-212.12
488.191	29.75
488.4	166.55
488.609	-202.08
488.818	-168.91
489.027	647.82
489.236	505.08
489.445	-167.68
489.654	-266.8
489.863	414.15
490.072	151.6
490.281	153.44
490.49	-192.66
490.698	552.18
490.907	569.8
491.116	-173.82
491.325	-331.11
491.534	476
491.743	179.86
491.952	-100.09
492.16	-151.29
492.369	301.72
492.578	393.47
492.787	-108.7
492.996	-110.74
493.204	32.41
493.413	596.01
493.622	-365.31
493.831	-358.34
494.039	624.27
494.248	-82.48
494.457	-229.12
494.665	-348.92
494.874	333.26
495.083	691.04
495.291	-233.62
495.5	-241.81
495.709	387.12
495.917	231.47
496.126	-75.11
496.335	-244.48
496.543	65.59
496.752	269.97
496.96	67.22
497.169	-333.56
497.377	175.36
497.586	421.73
497.794	-100.91
498.003	-358.75
498.211	156.93
498.42	487.47
498.628	-100.3
498.837	-255.94
499.045	280.62
499.254	209.56
499.462	-167.06
499.671	-235.06
499.879	663.8
500.087	480.3
500.296	-272.94
500.504	-172.39
500.713	252.98
500.921	673.42
501.129	-224.82
501.338	-182.01
501.546	281.24
501.754	202.8
501.962	-193.69
502.171	-292.19
502.379	280.21
502.587	540.92
502.795	-94.56
503.004	-180.17
503.212	273.05
503.42	496.48
503.628	-159.08
503.837	-58.93
504.045	334.48
504.253	613.01
504.461	-204.95
504.669	-339.91
504.877	396.13
505.085	542.35
505.294	-301.41
505.502	21.35
505.71	264.44
505.918	370.32
506.126	-253.28
506.334	-196.35
506.542	180.07
506.75	289.63
506.958	-31.9
507.166	-130.81
507.374	94.05
507.582	616.69
507.79	-65.07
507.998	-211.3
508.206	388.55
508.414	361.52
508.622	-190.82
508.83	-131.43
509.037	401.45
509.245	126.41
509.453	-255.74
509.661	-264.55
509.869	388.35
510.077	160.82
510.285	-29.64
510.492	-407.49
510.7	749.81
510.908	70.5
511.116	-123.65
511.324	-157.03
511.531	122.93
511.739	285.74
511.947	4.35
512.155	150.37
512.362	280.21
512.57	-50.94
512.778	-221.33
512.985	-343.8
513.193	433.61
513.401	583.52
513.608	-118.32
513.816	-174.64
514.024	369.71
514.231	501.19
514.439	-169.73
514.646	-154.57
514.854	455.93
515.061	486.65
515.269	-157.85
515.477	-152.73
515.684	33.84
515.892	491.77
516.099	-298.75
516.307	-265.98
516.514	390.39
516.722	615.26
516.929	-137.98
517.136	-244.48
517.344	541.12
517.551	356.19
517.759	-205.56
517.966	-104.4
518.173	109.21
518.381	257.89
518.588	-59.14
518.796	-186.31
519.003	445.69
519.21	280.01
519.418	-156.62
519.625	160.2
519.832	228.81
520.039	365
520.247	-324.35
520.454	-118.12
520.661	518.6
520.868	350.05
521.076	-125.49
521.283	-60.98
521.49	853.03
521.697	367.87
521.904	-69.37
522.112	-104.4
522.319	503.03
522.526	399.61
522.733	-174.44
522.94	-104.6
523.147	267.31
523.354	449.99
523.561	-293.63
523.768	-19.4
523.975	526.58
524.183	281.24
524.39	25.86
524.597	-233.01
524.804	297.42
525.011	71.73
525.218	-156
525.425	-148.22
525.632	606.66
525.838	97.12
526.045	-143.51
526.252	-117.09
526.459	1180.09
526.666	1217.77
526.873	-167.27
527.08	-150.47
527.287	621
527.494	521.46
527.701	-252.26
527.907	-178.94
528.114	407.39
528.321	245.6
528.528	-93.95
528.735	-149.25
528.941	165.32
529.148	150.78
529.355	-33.13
529.562	-130.81
529.768	617.51
529.975	213.04
530.182	-58.93
530.388	-131.02
530.595	524.74
530.802	24.42
531.008	41.42
531.215	-88.01
531.422	987.17
531.628	1011.34
531.835	-25.75
532.042	-37.02
532.248	141.16
532.455	343.5
532.661	-62
532.868	-112.18
533.074	398.79
533.281	541.12
533.487	-113.82
533.694	-125.69
533.9	79.31
534.107	407.39
534.313	-143.51
534.52	-187.34
534.726	447.12
534.933	781.35
535.139	-172.18
535.345	-195.73
535.552	472.72
535.758	336.53
535.965	-30.87
536.171	-137.37
536.377	477.02
536.584	670.56
536.79	-118.53
536.996	5.58
537.203	402.68
537.409	453.47
537.615	-36.61
537.821	-104.8
538.028	539.49
538.234	491.77
538.44	-35.17
538.646	25.45
538.853	412.72
539.059	262.19
539.265	376.06
539.471	-290.97
539.677	574.1
539.883	170.03
540.09	-126.31
540.296	329.16
540.502	298.24
540.708	139.93
540.914	132.96
541.12	-68.35
541.326	482.96
541.532	304.17
541.738	59.65
541.944	12.13
542.15	572.87
542.356	274.07
542.562	-125.08
542.768	32.41
542.974	872.9
543.18	856.1
543.386	-115.25
543.592	-210.07
543.798	709.67
544.004	625.71
544.21	-94.36
544.415	37.53
544.621	473.13
544.827	666.05
545.033	-144.13
545.239	201.98
545.445	91.8
545.651	437.29
545.856	-33.54
546.062	-84.94
546.268	229.83
546.474	387.32
546.679	-3.02
546.885	16.23
547.091	213.65
547.297	872.69
547.502	95.49
547.708	-148.63
547.914	197.27
548.119	548.09
548.325	-100.09
548.531	-149.86
548.736	787.9
548.942	180.27
549.147	-68.56
549.353	207.92
549.559	654.79
549.764	505.49
549.97	-4.86
550.175	4.15
550.381	529.04
550.586	195.02
550.792	63.74
550.997	11.72
551.203	513.07
551.408	587.2
551.614	-103.78
551.819	-42.55
552.025	810.84
552.23	774.18
552.435	-70.19
552.641	172.29
552.846	217.96
553.052	708.24
553.257	147.1
553.462	8.45
553.668	196.86
553.873	610.35
554.078	-46.03
554.283	-63.03
554.489	465.35
554.694	410.05
554.899	-55.04
555.105	185.19
555.31	529.45
555.515	602.97
555.72	103.06
555.925	533.55
556.131	594.99
556.336	335.51
556.541	11.93
556.746	-90.06
556.951	753.7
557.156	740.8
557.361	147.3
557.567	194.2
557.772	870.64
557.977	582.08
558.182	35.89
558.387	17.87
558.592	281.03
558.797	782.17
559.002	92.82
559.207	184.37
559.412	401.66
559.617	933.52
559.822	50.64
560.027	3.53
560.232	485.21
560.437	628.78
560.642	-94.56
560.847	-15.31
561.051	461.87
561.256	530.27
561.461	105.73
561.666	-64.87
561.871	482.76
562.076	608.3
562.281	110.23
562.485	-37.43
562.69	648.23
562.895	678.34
563.1	77.67
563.305	-33.54
563.509	728.92
563.714	967.31
563.919	67.63
564.123	50.64
564.328	449.58
564.533	786.68
564.737	111.26
564.942	49
565.147	815.35
565.351	901.98
565.556	193.99
565.761	199.93
565.965	572.87
566.17	314.21
566.374	130.92
566.579	-28.83
566.784	539.49
566.988	419.88
567.193	-50.33
567.397	152.42
567.602	206.9
567.806	480.71
568.011	92.62
568.215	138.49
568.42	416.61
568.624	454.5
568.828	108.39
569.033	268.54
569.237	718.48
569.442	631.85
569.646	-45.21
569.85	116.79
570.055	475.59
570.259	587.41
570.463	354.96
570.668	114.74
570.872	472.31
571.076	453.06
571.281	261.99
571.485	237
571.689	559.56
571.893	688.78
572.098	274.48
572.302	122.11
572.506	661.95
572.71	575.12
572.914	141.57
573.119	115.76
573.323	905.66
573.527	861.63
573.731	178.84
573.935	73.98
574.139	629.6
574.343	403.3
574.547	172.08
574.751	269.15
574.955	777.46
575.159	830.09
575.364	154.06
575.568	97.53
575.772	518.8
575.976	777.05
576.18	128.25
576.383	77.46
576.587	822.72
576.791	707.21
576.995	-19.81
577.199	24.22
577.403	731.18
577.607	785.86
577.811	81.77
578.015	288.2
578.219	642.09
578.422	793.84
578.626	282.26
578.83	420.91
579.034	865.52
579.238	672.6
579.442	165.32
579.645	617.92
579.849	598.26
580.053	637.17
580.257	277.35
580.46	268.54
580.664	844.63
580.868	763.74
581.071	442.41
581.275	341.65
581.479	280.01
581.682	795.48
581.886	196.66
582.09	345.34
582.293	804.7
582.497	849.96
582.7	429.72
582.904	208.53
583.107	649.87
583.311	549.52
583.515	313.39
583.718	317.28
583.922	768.04
584.125	1134.22
584.329	206.69
584.532	399.41
584.735	998.03
584.939	757.59
585.142	116.58
585.346	200.14
585.549	754.93
585.753	529.25
585.956	297.01
586.159	452.04
586.363	1040.42
586.566	809.2
586.769	232.91
586.973	166.14
587.176	797.12
587.379	936.38
587.582	607.48
587.786	556.28
587.989	668.71
588.192	1399.63
588.395	371.76
588.599	643.93
588.802	779.92
589.005	879.45
589.208	356.4
589.411	351.89
589.615	914.47
589.818	1130.12
590.021	557.1
590.224	458.59
590.427	1002.53
590.63	904.02
590.833	162.86
591.036	252.57
591.239	615.88
591.442	628.98
591.645	576.35
591.848	305.61
592.051	773.77
592.254	937.82
592.457	459.82
592.66	438.73
592.863	697.18
593.066	899.72
593.269	372.37
593.472	469.24
593.675	550.75
593.878	927.58
594.081	509.79
594.284	314.21
594.486	875.76
594.689	804.29
594.892	526.17
595.095	468.42
595.298	916.93
595.5	655.61
595.703	513.68
595.906	545.83
596.109	1047.59
596.311	982.26
596.514	158.97
596.717	497.91
596.92	1086.5
597.122	958.71
597.325	212.63
597.528	394.29
597.73	1079.33
597.933	917.13
598.136	421.11
598.338	193.79
598.541	953.38
598.743	1111.28
598.946	503.03
599.148	457.77
599.351	1096.53
599.554	1038.58
599.756	582.49
599.959	497.09
600.161	1116.6
600.363	1411.72
600.566	720.73
600.768	459.21
600.971	1196.88
601.173	1005.4
601.376	483.99
601.578	526.99
601.78	967.51
601.983	1426.87
602.185	425.41
602.388	709.06
602.59	947.85
602.792	747.15
602.995	595.4
603.197	551.36
603.399	1108
603.601	1029.57
603.804	552.39
604.006	501.19
604.208	824.97
604.41	459
604.613	708.44
604.815	467.19
605.017	1396.15
605.219	713.77
605.421	996.18
605.623	534.57
605.826	1256.07
606.028	1317.51
606.23	570
606.432	534.57
606.634	1256.48
606.836	1213.88
607.038	471.08
607.24	717.05
607.442	1023.83
607.644	968.33
607.846	694.11
608.048	500.57
608.25	1303.99
608.452	730.36
608.654	598.88
608.856	373.6
609.058	898.9
609.26	1144.66
609.462	710.7
609.664	616.69
609.866	1279.21
610.067	1221.25
610.269	771.32
610.471	629.19
610.673	899.52
610.875	1128.28
611.077	432.17
611.278	707.62
611.48	1030.79
611.682	1417.25
611.884	730.97
612.085	688.37
612.287	748.17
612.489	1064.59
612.69	516.34
612.892	672.6
613.094	1299.69
613.295	1124.39
613.497	524.74
613.699	685.92
613.9	1341.88
614.102	1211.42
614.304	669.33
614.505	552.59
614.707	1014.41
614.908	1078.72
615.11	491.56
615.311	781.15
615.513	1211.63
615.714	1219.41
615.916	556.48
616.117	732.4
616.319	1025.88
616.52	1248.29
616.722	688.58
616.923	645.98
617.124	1372.8
617.326	1271.23
617.527	812.69
617.729	923.89
617.93	1248.9
618.131	1236.41
618.333	670.15
618.534	778.07
618.735	1026.7
618.937	1455.54
619.138	626.93
619.339	602.97
619.54	1207.12
619.742	1025.06
619.943	869.21
620.144	791.8
620.345	1321.4
620.546	1329.8
620.748	752.27
620.949	838.9
621.15	1296.21
621.351	1168.01
621.552	717.45
621.753	609.73
621.954	776.23
622.155	1618.77
622.356	677.31
622.558	949.08
622.759	1144.05
622.96	1575.96
623.161	816.37
623.362	783.19
623.563	1125.82
623.764	1213.88
623.965	782.78
624.166	1002.53
624.366	1085.47
624.567	1250.75
624.768	528.22
624.969	780.12
625.17	1080.35
625.371	1294.98
625.572	925.73
625.773	755.55
625.973	1374.44
626.174	1414.38
626.375	895.22
626.576	939.45
626.777	1328.77
626.977	1713.38
627.178	895.63
627.379	943.76
627.58	1138.72
627.78	1220.03
627.981	909.35
628.182	1007.04
628.382	1412.33
628.583	849.34
628.784	758.62
628.984	1008.88
629.185	1359.29
629.386	1466.6
629.586	969.35
629.787	803.67
629.987	1384.68
630.188	1217.16
630.388	887.23
630.589	1037.14
630.79	1839.33
630.99	1279.01
631.191	1023.63
631.391	1024.45
631.591	1407.01
631.792	1616.92
631.992	1078.92
632.193	963.01
632.393	1664.44
632.594	1294.98
632.794	956.86
632.994	1064.38
633.195	1281.67
633.395	1237.02
633.595	897.47
633.796	1172.72
633.996	1156.54
634.196	1566.75
634.397	802.45
634.597	1035.5
634.797	1074.83
634.997	1680.61
635.198	1232.72
635.398	892.56
635.598	1435.68
635.798	1613.03
635.998	1428.71
636.199	922.25
636.399	1188.28
636.599	1069.91
636.799	1008.06
636.999	1317.3
637.199	1476.43
637.399	1616.1
637.599	965.87
637.799	1119.47
637.999	1293.96
638.199	1674.27
638.399	980.82
638.599	1021.58
638.799	1529.06
638.999	1785.27
639.199	1247.26
639.399	1140.56
639.599	1684.51
639.799	1173.54
639.999	966.08
640.199	970.58
640.399	1443.87
640.599	1533.37
640.799	1162.68
640.998	1302.76
641.198	1660.13
641.398	1552.82
641.598	1203.03
641.798	1151.62
641.997	2374.67
642.197	1418.06
642.397	1258.53
642.597	1070.93
642.796	1569.41
642.996	1685.12
643.196	1294.98
643.395	1018.51
643.595	1522.92
643.795	1056.6
643.994	1142.41
644.194	1214.29
644.394	1675.9
644.593	1620.81
644.793	1019.33
644.992	1271.84
645.192	1652.35
645.392	1076.26
645.591	1338.19
645.791	1203.44
645.99	1748.2
646.19	1456.16
646.389	1213.06
646.589	1194.63
646.788	1661.36
646.987	1648.26
647.187	1455.13
647.386	1444.89
647.586	1528.66
647.785	1822.95
647.984	1197.5
648.184	1291.09
648.383	1361.34
648.582	1432.61
648.782	1218.39
648.981	1388.57
649.18	1337.99
649.38	1582.11
649.579	1268.97
649.778	1213.68
649.977	1752.91
650.177	1685.94
650.376	1187.67
650.575	1172.51
650.774	1930.88
650.973	1692.49
651.173	1097.76
651.372	1363.59
651.571	1591.53
651.77	1886.64
651.969	1313.41
652.168	1418.88
652.367	1353.76
652.566	1566.75
652.765	1266.31
652.964	1671.19
653.163	2037.98
653.362	1590.5
653.561	1300.31
653.76	1345.98
653.959	1609.75
654.158	1791.41
654.357	1567.16
654.556	1353.55
654.755	1805.95
654.954	1830.73
655.153	1365.64
655.352	1452.27
655.551	1957.5
655.749	1533.77
655.948	1480.73
656.147	1495.89
656.346	1759.26
656.545	1683.28
656.743	1490.77
656.942	1433.22
657.141	1757.41
657.34	1529.47
657.538	1426.26
657.737	1424.21
657.936	1712.97
658.135	1810.87
658.333	1403.93
658.532	1572.69
658.731	2175.81
658.929	1965.28
659.128	1779.53
659.326	1367.89
659.525	2084.06
659.724	1777.07
659.922	1255.87
660.121	1346.39
660.319	1819.26
660.518	1594.19
660.716	1362.36
660.915	1375.47
661.113	2103.93
661.312	1514.93
661.51	1602.38
661.709	1380.59
661.907	1938.45
662.105	2126.87
662.304	1450.42
662.502	1571.46
662.701	2097.38
662.899	1743.28
663.097	1876.2
663.296	1389.8
663.494	2040.24
663.692	2217.8
663.891	1436.29
664.089	1369.32
664.287	1929.65
664.485	2138.74
664.684	1474.79
664.882	1625.73
665.08	1881.11
665.278	1835.24
665.476	1452.27
665.675	1868.41
665.873	2303.2
666.071	2130.35
666.269	1536.23
666.467	1828.07
666.665	1947.06
666.863	1857.15
667.061	1733.45
667.259	1533.57
667.457	1879.68
667.655	2065.02
667.853	1469.26
668.051	1783.83
668.249	1740.01
668.447	2348.05
668.645	1508.79
668.843	1814.14
669.041	2093.28
669.239	1835.03
669.437	1762.12
669.635	1792.43
669.833	1861.04
670.031	2073.62
670.229	1766.01
670.426	1736.73
670.624	1850.6
670.822	1798.99
671.02	1627.37
671.218	1761.71
671.415	1728.33
671.613	2031.84
671.811	1852.85
672.009	1674.47
672.206	2183.6
672.404	1962.01
672.602	1951.15
672.799	1813.94
672.997	2165.57
673.195	2210.42
673.392	1833.19
673.59	1605.25
673.788	2137.31
673.985	1492.41
674.183	1854.49
674.38	1705.8
674.578	2245.03
674.775	1879.27
674.973	1646.21
675.17	1612.01
675.368	2325.52
675.565	2270.02
675.763	1749.22
675.96	1706.21
676.158	2267.56
676.355	1995.59
676.553	1702.32
676.75	1763.35
676.947	2008.29
677.145	2043.92
677.342	1863.29
677.539	1866.77
677.737	2223.12
677.934	2507.38
678.131	1984.12
678.329	1745.74
678.526	2587.66
678.723	2276.57
678.92	1905.48
679.118	1877.42
679.315	1829.5
679.512	2402.32
679.709	1848.55
679.906	1896.68
680.104	2387.78
680.301	2109.05
680.498	1678.57
680.695	1770.93
680.892	1989.86
681.089	2057.65
681.286	1944.19
681.483	1726.69
681.68	2194.65
681.877	2292.96
682.075	1872.92
682.272	2065.02
682.469	2250.36
682.665	2095.33
682.862	1745.94
683.059	1698.43
683.256	2183.8
683.453	2200.8
683.65	1981.46
683.847	1934.15
684.044	2192.4
684.241	1977.37
684.438	2030.2
684.635	1761.71
684.831	2599.33
685.028	2673.47
685.225	1864.73
685.422	2112.94
685.619	2176.43
685.815	2176.84
686.012	1991.5
686.209	1937.22
686.405	1970.2
686.602	2357.67
686.799	1796.53
686.996	1832.78
687.192	2002.15
687.389	2742.28
687.586	1916.13
687.782	1969.38
687.979	2646.64
688.175	2440
688.372	1972.86
688.568	1987.2
688.765	2133.22
688.962	2511.07
689.158	2052.32
689.355	1799.19
689.551	2393.92
689.748	2099.63
689.944	2094.1
690.14	1840.56
690.337	2453.52
690.533	2274.12
690.73	2204.28
690.926	2055.6
691.123	2358.49
691.319	2248.93
691.515	1853.67
691.712	2182.57
691.908	2418.29
692.104	2355.22
692.301	2131.78
692.497	1870.26
692.693	2502.05
692.889	2436.11
693.086	2166.19
693.282	1843.63
693.478	2343.75
693.674	2689.65
693.87	2056.21
694.067	1911.63
694.263	2364.84
694.459	2294.39
694.655	2217.59
694.851	2166.39
695.047	2488.33
695.243	2523.97
695.439	2244.83
695.635	2012.59
695.831	2447.58
696.027	2322.86
696.224	2031.02
696.42	2477.07
696.615	2696
696.811	2534
697.007	1953.2
697.203	2069.93
697.399	2472.56
697.595	2637.83
697.791	1999.28
697.987	2198.34
698.183	2121.13
698.379	2212.47
698.575	2132.81
698.77	2196.7
698.966	2538.1
699.162	2677.16
699.358	2101.27
699.554	2176.22
699.749	2579.26
699.945	2591.96
700.141	2266.74
700.337	2239.71
700.532	2367.91
700.728	2231.93
700.924	2066.45
701.119	1967.33
701.315	2535.23
701.511	2387.16
701.706	2236.43
701.902	1977.77
702.097	2491.61
702.293	2552.23
702.489	2224.55
702.684	2123.59
702.88	2459.66
703.075	2381.63
703.271	2227.22
703.466	2056.01
703.662	2430.17
703.857	2589.3
704.053	2115.19
704.248	2181.96
704.443	2718.73
704.639	2625.14
704.834	2260.8
705.03	2163.53
705.225	2670.81
705.42	2781.81
705.616	2377.13
705.811	2114.78
706.006	2409.9
706.202	2425.26
706.397	2355.42
706.592	2070.75
706.787	2621.86
706.983	2513.93
707.178	2468.47
707.373	2303.61
707.568	2701.12
707.763	2779.55
707.959	2177.04
708.154	2198.34
708.349	2600.97
708.544	2656.88
708.739	2461.1
708.934	2181.75
709.129	2782.01
709.324	2834.85
709.519	2197.52
709.714	2174.17
709.909	2804.74
710.104	2574.55
710.299	2293.37
710.494	2358.7
710.689	2733.88
710.884	2618.38
711.079	2376.31
711.274	2424.44
711.469	2776.89
711.664	2698.45
711.859	2335.76
712.054	2420.75
712.249	2726.31
712.443	2807.41
712.638	2209.2
712.833	2288.04
713.028	2599.13
713.223	2573.32
713.417	2589.91
713.612	2283.95
713.807	2853.08
714.002	3296.67
714.196	2547.52
714.391	2339.04
714.586	2838.95
714.78	2681.46
714.975	2361.15
715.17	2320.81
715.364	2587.05
715.559	2940.52
715.754	2083.86
715.948	2296.03
716.143	3108.25
716.337	2708.69
716.532	2701.12
716.726	2409.28
716.921	2877.45
717.115	3088.18
717.31	2223.53
717.504	3040.67
717.699	2670.19
717.893	2951.58
718.088	2332.28
718.282	2280.67
718.476	2784.47
718.671	2848.37
718.865	2431.4
719.059	2412.15
719.254	2697.02
719.448	3086.54
719.642	3985.4
719.837	2214.93
720.031	2939.09
720.225	2964.69
720.419	2504.31
720.614	2405.6
720.808	2877.24
721.002	2730.4
721.196	2426.48
721.39	2475.84
721.585	3093.71
721.779	2907.55
721.973	2545.47
722.167	2323.06
722.361	2877.86
722.555	3093.51
722.749	2500.21
722.943	2461.91
723.137	2509.84
723.331	2905.5
723.525	2517
723.719	2517.41
723.913	3031.25
724.107	3175.02
724.301	2389.62
724.495	2563.49
724.689	3197.95
724.883	3094.33
725.077	2510.86
725.271	2509.22
725.465	3067.29
725.659	2796.76
725.853	2629.03
726.046	2386.14
726.24	2730.81
726.434	3052.96
726.628	2561.04
726.822	2545.88
727.015	3117.67
727.209	3256.32
727.403	2621.45
727.596	2384.3
727.79	3017.73
727.984	3034.94
728.177	2607.32
728.371	2628.82
728.565	3098.83
728.758	2640.7
728.952	2528.68
729.146	2568.41
729.339	3121.97
729.533	2876.83
729.726	2634.97
729.92	2510.86
730.113	3193.86
730.307	2935
730.5	2645.62
730.694	2560.63
730.887	2857.79
731.081	3053.37
731.274	2549.36
731.468	2634.56
731.661	2877.04
731.854	2801.06
732.048	2572.91
732.241	2496.93
732.435	2809.66
732.628	2961.62
732.821	2697.23
733.014	2547.11
733.208	2670.6
733.401	3129.96
733.594	2600.36
733.788	2634.56
733.981	3256.73
734.174	3091.46
734.367	2659.95
734.56	2770.13
734.754	3252.64
734.947	3033.5
735.14	2623.7
735.333	2706.03
735.526	3245.88
735.719	2797.78
735.912	2611.21
736.105	2642.14
736.298	3025.11
736.491	2891.37
736.684	2630.05
736.877	2610.19
737.07	3160.68
737.263	3371.83
737.456	2673.06
737.649	2560.01
737.842	2918.82
738.035	3057.26
738.228	2786.52
738.421	2865.57
738.614	3373.67
738.807	3258.57
739	2523.35
739.192	2646.23
739.385	3176.66
739.578	3179.73
739.771	2994.18
739.964	2711.56
740.156	3181.98
740.349	3036.78
740.542	2942.98
740.735	2586.02
740.927	2758.46
741.12	2839.97
741.313	2636.4
741.505	2882.77
741.698	3155.97
741.891	3211.06
742.083	2888.3
742.276	2767.47
742.468	3134.88
742.661	3068.52
742.854	2758.05
743.046	2719.75
743.239	3428.56
743.431	3087.16
743.624	2805.36
743.816	2570.87
744.009	3105.8
744.201	3195.29
744.393	2958.55
744.586	2637.63
744.778	3346.64
744.971	3099.04
745.163	2832.6
745.355	2932.33
745.548	3136.31
745.74	3027.77
745.932	2869.05
746.125	2742.9
746.317	3638.06
746.509	3197.54
746.702	2802.7
746.894	2888.92
747.086	3231.95
747.278	3377.56
747.471	2992.54
747.663	2852.26
747.855	3147.98
748.047	3618.61
748.239	2785.29
748.431	2750.88
748.623	3570.07
748.815	3474.84
749.008	2699.07
749.2	2754.77
749.392	3297.08
749.584	3345.2
749.776	2883.8
749.968	2960.8
750.16	3545.7
750.352	3094.12
750.544	2893.83
750.736	2776.28
750.928	3249.56
751.12	3258.57
751.311	2850.62
751.503	2856.56
751.695	3231.75
751.887	3165.39
752.079	2642.14
752.271	2818.26
752.463	3861.5
752.654	3319.81
752.846	2920.45
753.038	2812.94
753.23	3016.5
753.421	3330.46
753.613	2832.6
753.805	3069.96
753.997	3337.42
754.188	3403.16
754.38	2810.48
754.572	2848.78
754.763	3109.89
754.955	3308.95
755.146	2911.85
755.338	2909.81
755.53	3341.72
755.721	3167.23
755.913	2714.02
756.104	2763.38
756.296	3084.91
756.487	3356.47
756.679	2726.51
756.87	2821.95
757.062	3091.87
757.253	3307.32
757.445	2802.9
757.636	2987.83
757.827	3216.18
758.019	3766.06
758.21	2740.85
758.401	2853.9
758.593	3709.54
758.784	3499.62
758.975	2735.11
759.167	2758.87
759.358	3253.66
759.549	3502.9
759.74	2848.98
759.932	2819.69
760.123	3448.63
760.314	3048.86
760.505	2951.99
760.696	2841.4
760.888	3591.98
761.079	3122.38
761.27	2750.47
761.461	2637.43
761.652	3508.43
761.843	3113.17
762.034	2904.69
762.225	3165.6
762.416	3172.35
762.607	3183.82
762.798	2801.67
762.989	2821.33
763.18	4234.43
763.371	3137.54
763.562	2804.13
763.753	2901.82
763.944	3363.02
764.135	3396.2
764.326	3015.48
764.517	2826.25
764.708	3264.1
764.899	3362
765.089	2827.68
765.28	2692.93
765.471	3166.83
765.662	3346.84
765.853	2942.37
766.043	2724.87
766.234	3398.25
766.425	3373.47
766.615	2892.4
766.806	2684.12
766.997	3448.63
767.187	3230.31
767.378	2794.91
767.569	2667.33
767.759	3280.9
767.95	3148.6
768.141	3037.19
768.331	2801.67
768.522	3226.22
768.712	3328.21
768.903	2760.92
769.093	2743.31
769.284	3487.74
769.474	3232.57
769.665	2663.84
769.855	2624.73
770.046	3345.61
770.236	3107.43
770.426	3007.7
770.617	2713.2
770.807	3286.02
770.998	3150.03
771.188	3016.09
771.378	2808.23
771.569	3389.64
771.759	3317.15
771.949	2682.69
772.139	2545.47
772.33	3193.45
772.52	3344.18
772.71	2751.91
772.9	2666.92
773.09	3450.47
773.281	3547.54
773.471	2783.65
773.661	2808.02
773.851	3360.36
774.041	3064.22
774.231	2725.28
774.421	3011.38
774.611	3491.22
774.802	3137.74
774.992	2848.37
775.182	2641.93
775.372	3212.09
775.562	3401.93
775.752	2775.25
775.942	2799.83
776.131	3449.24
776.321	3336.81
776.511	2752.11
776.701	2673.06
776.891	3435.93
777.081	2944.42
777.271	2868.64
777.461	2742.69
777.651	3306.09
777.84	3396.61
778.03	2921.27
778.22	2769.31
778.41	3378.99
778.599	2952.4
778.789	2862.91
778.979	2685.14
779.169	3214.75
779.358	3103.75
779.548	3064.84
779.738	2569.84
779.927	3213.93
780.117	2913.9
780.307	2767.68
780.496	2498.16
780.686	3212.49
780.875	3598.13
781.065	2737.37
781.254	2724.67
781.444	3124.64
781.633	3137.33
781.823	2651.76
782.012	2698.25
782.202	3019.37
782.391	3091.66
782.581	2673.47
782.77	2978.62
782.96	3347.46
783.149	3033.5
783.338	2719.14
783.528	2501.85
783.717	3340.9
783.906	3426.71
784.096	2856.97
784.285	2651.15
784.474	2961.82
784.663	2925.57
784.853	2698.86
785.042	2781.81
785.231	2970.43
785.42	3285.4
785.61	2857.58
785.799	2611.83
785.988	3125.46
786.177	3047.22
786.366	2767.68
786.555	2940.52
786.744	3265.74
786.933	3066.68
787.122	2618.99
787.312	2558.37
787.501	2938.07
787.69	3211.27
787.879	2673.88
788.068	2642.34
788.257	2786.31
788.445	2967.56
788.634	2721.8
788.823	2588.68
789.012	3555.12
789.201	3436.54
789.39	2761.74
789.579	2661.39
789.768	3092.07
789.957	3063.61
790.145	2644.59
790.334	2422.39
790.523	2936.43
790.712	3000.74
790.9	2790.61
791.089	2532.77
791.278	3229.49
791.467	3103.95
791.655	3007.29
791.844	3256.94
792.033	2883.18
792.221	3052.55
792.41	2823.18
792.599	2486.49
792.787	3180.75
792.976	3258.98
793.164	2579.06
793.353	2664.66
793.541	3216.39
793.73	3164.98
793.918	2722.83
794.107	2635.99
794.295	3064.22
794.484	3014.05
794.672	2680.84
794.861	2676.13
795.049	3132.01
795.238	3436.34
795.426	2535.23
795.614	2703.37
795.803	3151.47
795.991	3376.33
796.179	2651.76
796.368	2614.9
796.556	3310.8
796.744	2767.06
796.932	2573.12
797.121	2566.77
797.309	3009.13
797.497	3185.67
797.685	2664.05
797.874	2626.57
798.062	2988.24
798.25	3345
798.438	2575.37
798.626	2687.4
798.814	3149.83
799.002	3501.05
799.19	2861.68
799.378	2755.8
799.566	3292.57
799.755	3379.4
799.943	2871.1
800.131	2649.92
800.318	3121.57
800.506	3133.44
800.694	2592.37
800.882	2824
801.07	3378.38
801.258	3013.43
801.446	2677.77
801.634	2733.88
801.822	3045.38
802.01	3059.31
802.197	2685.35
802.385	2859.83
802.573	3098.01
802.761	2881.95
802.949	2771.36
803.136	2527.04
803.324	3306.09
803.512	3190.79
803.699	2855.12
803.887	2556.33
804.075	3361.79
804.262	2974.52
804.45	2615.72
804.638	2857.79
804.825	2868.44
805.013	2892.81
805.201	2755.39
805.388	2632.72
805.576	3089.21
805.763	3504.74
805.951	2751.7
806.138	2908.58
806.326	3624.55
806.513	3207.38
806.701	2781.6
806.888	2733.88
807.075	3236.87
807.263	3579.7
807.45	2675.31
807.638	2968.99
807.825	3599.36
808.012	3399.88
808.2	2856.15
808.387	3092.28
808.574	3302.81
808.761	3517.23
808.949	2717.71
809.136	2879.7
809.323	3089
809.51	3121.97
809.698	3169.69
809.885	3043.54
810.072	3304.65
810.259	3473.61
810.446	2936.63
810.633	2809.25
810.82	3470.13
811.008	3595.47
811.195	3045.59
811.382	2919.64
811.569	3235.02
811.756	2951.38
811.943	2896.7
812.13	2820.72
812.317	3134.67
812.504	3070.98
812.691	2993.57
812.878	2975.14
813.064	3562.08
813.251	3253.04
813.438	2753.95
813.625	3034.94
813.812	3199.39
813.999	3220.69
814.186	3004.83
814.372	2907.96
814.559	3305.27
814.746	3579.29
814.933	2893.83
815.12	3072.82
815.306	3159.86
815.493	2982.1
815.68	2877.65
815.866	2925.98
816.053	3440.84
816.24	3672.67
816.426	3013.02
816.613	2781.19
816.799	3420.98
816.986	3590.96
817.173	2847.75
817.359	2830.34
817.546	3346.02
817.732	2944.62
817.919	2688.62
818.105	3007.7
818.292	3173.17
818.478	3341.72
818.665	3076.92
818.851	2840.17
819.037	3824.43
819.224	3260.62
819.41	2741.46
819.597	2805.97
819.783	3671.85
819.969	3386.16
820.156	2960.59
820.342	2805.15
820.528	4157.02
820.714	3147.98
820.901	3115.22
821.087	2879.5
821.273	3612.26
821.459	3174.2
821.646	2848.16
821.832	2793.89
822.018	3281.92
822.204	3236.05
822.39	2890.76
822.576	2842.02
822.762	3374.28
822.948	3326.57
823.134	3086.34
823.32	2897.72
823.507	2941.55
823.693	3341.72
823.879	3342.95
824.065	2808.23
824.25	3278.85
824.436	3009.95
824.622	2815.8
824.808	2800.85
824.994	3121.77
825.18	3031.25
825.366	2768.7
825.552	2809.25
825.738	3154.74
825.923	3491.43
826.109	3066.68
826.295	2766.65
826.481	3029.61
826.667	3123
826.852	3050.3
827.038	2776.69
827.224	3484.06
827.409	3577.44
827.595	2663.43
827.781	3038.62
827.966	3479.35
828.152	3446.99
828.338	2906.53
828.523	2629.44
828.709	3054.19
828.894	3440.64
829.08	2933.15
829.266	2735.93
829.451	3167.03
829.637	3411.76
829.822	2935.81
830.008	2779.35
830.193	3423.85
830.378	3557.99
830.564	2899.36
830.749	2674.9
830.935	3268.2
831.12	3337.63
831.305	2876.42
831.491	2932.74
831.676	2886.25
831.861	3391.49
832.047	2882.36
832.232	2667.33
832.417	3390.67
832.602	3258.98
832.788	2772.18
832.973	2770.54
833.158	3125.46
833.343	3166.83
833.528	2969.2
833.714	2942.78
833.899	3219.25
834.084	3623.32
834.269	3041.9
834.454	2777.1
834.639	3335.17
834.824	3134.06
835.009	2970.63
835.194	2986.19
835.379	3350.12
835.564	3550.21
835.749	3006.26
835.934	2659.54
836.119	3351.96
836.304	3203.69
836.489	2713
836.674	3068.11
836.859	2884.41
837.044	3459.28
837.228	2791.84
837.413	2707.88
837.598	3202.26
837.783	3360.56
837.968	2762.76
838.152	2618.38
838.337	2666.71
838.522	3466.85
838.707	3246.29
838.891	2987.63
839.076	3190.58
839.261	3263.28
839.445	2880.11
839.63	2899.97
839.815	3512.52
839.999	3024.08
840.184	2758.87
840.368	2775.46
840.553	3335.37
840.737	3210.65
840.922	2596.47
841.106	2602
841.291	2799.01
841.475	3192.63
841.66	2729.17
841.844	2711.56
842.029	3755.21
842.213	2755.8
842.397	2687.6
842.582	2510.45
842.766	3308.34
842.951	3254.68
843.135	2763.58
843.319	2701.12
843.504	3086.14
843.688	3321.86
843.872	2520.28
844.056	2588.89
844.241	3184.64
844.425	2984.56
844.609	2863.93
844.793	2497.75
844.977	3298.3
845.161	3130.99
845.346	2494.07
845.53	2616.33
845.714	2935.61
845.898	3426.92
846.082	2408.26
846.266	2609.98
846.45	3019.37
846.634	3097.4
846.818	2595.65
847.002	2797.58
847.186	3133.85
847.37	2743.31
847.554	2520.49
847.738	2754.98
847.922	3100.27
848.106	3047.43
848.29	2524.58
848.473	2565.13
848.657	3136.11
848.841	2910.42
849.025	2611.42
849.209	2426.28
849.392	3142.25
849.576	2862.91
849.76	2341.7
849.944	2733.07
850.127	3330.46
850.311	2659.75
850.495	2494.27
850.678	2385.12
850.862	3172.15
851.046	3334.76
851.229	2851.44
851.413	2440.41
851.596	2979.44
851.78	2916.97
851.964	2731.43
852.147	2621.86
852.331	3662.43
852.514	3265.95
852.698	2642.75
852.881	2382.04
853.065	3089.62
853.248	2876.22
853.431	2659.34
853.615	2635.17
853.798	3541.81
853.982	3008.72
854.165	2717.5
854.348	2537.69
854.532	2580.29
854.715	2736.34
854.898	2554.48
855.081	2517.21
855.265	3188.33
855.448	3365.27
855.631	2461.71
855.814	2502.26
855.997	3062.58
856.181	2890.14
856.364	2594.21
856.547	2300.94
856.73	2956.5
856.913	2882.57
857.096	2387.16
857.279	2549.98
857.462	2743.92
857.645	3065.66
857.828	2621.66
858.011	2677.16
858.194	2685.14
858.377	2997.05
858.56	2321.22
858.743	2535.03
858.926	2546.09
859.109	2890.76
859.292	2404.16
859.475	2279.24
859.658	3047.84
859.841	2937.45
860.023	2313.64
860.206	2314.87
860.389	2827.89
860.572	3069.75
860.755	2440.41
860.937	2462.73
861.12	2731.02
861.303	2818.88
861.486	2472.36
861.668	2457.41
861.851	2847.34
862.034	2860.04
862.216	2537.48
862.399	2214.32
862.581	2865.57
862.764	3111.94
862.947	2450.65
863.129	2323.06
863.312	2453.72
863.494	3045.18
863.677	2670.6
863.859	2165.37
864.042	2957.32
864.224	2914.93
864.406	2510.25
864.589	2138.74
864.771	2793.28
864.954	2459.87
865.136	2359.11
865.318	2131.58
865.501	2907.55
865.683	2256.09
865.865	2327.16
866.048	2307.09
866.23	2767.06
866.412	2679.82
866.594	2144.48
866.777	2433.86
866.959	2821.13
867.141	2505.13
867.323	2617.76
867.505	2442.87
867.687	2642.34
867.869	2666.3
868.052	2290.09
868.234	2193.43
868.416	2673.67
868.598	2844.27
868.78	2286.4
868.962	2205.1
869.144	2914.52
869.326	2811.09
869.508	2255.27
869.69	2181.34
869.872	2501.65
870.054	2974.52
870.236	2091.85
870.417	2235.41
870.599	2614.28
870.781	3053.37
870.963	2471.74
871.145	2196.91
871.327	2393.31
871.508	2826.45
871.69	2299.1
871.872	2335.35
872.054	2594.83
872.235	2770.13
872.417	2346.61
872.599	2175.61
872.78	3115.22
872.962	2690.88
873.144	2099.01
873.325	2294.8
873.507	3035.55
873.689	2661.39
873.87	2214.52
874.052	2413.99
874.233	2595.03
874.415	2994.8
874.596	2362.38
874.778	2232.75
874.959	2666.1
875.141	2950.97
875.322	2354.4
875.503	2234.59
875.685	2784.06
875.866	2266.54
876.048	2214.32
876.229	2218.62
876.41	2646.03
876.592	2809.45
876.773	2361.97
876.954	2177.45
877.136	3017.53
877.317	2604.86
877.498	2147.96
877.679	2403.34
877.86	2782.83
878.042	2687.81
878.223	2312.62
878.404	2712.38
878.585	2883.59
878.766	3121.16
878.947	2637.63
879.128	2521.51
879.309	2901
879.49	2990.5
879.672	2436.11
879.853	2432.42
880.034	2511.48
880.215	2703.98
880.396	2439.39
880.576	2390.85
880.757	2556.12
880.938	3131.4
881.119	2282.92
881.3	2366.68
881.481	2622.48
881.662	3568.84
881.843	2277.6
882.023	2246.06
882.204	2910.21
882.385	2788.77
882.566	2333.71
882.747	2349.28
882.927	2744.12
883.108	2847.14
883.289	2322.24
883.469	2624.52
883.65	2680.02
883.831	2743.31
884.011	2625.55
884.192	2399.25
884.373	2993.77
884.553	2865.16
884.734	2602.81
884.914	2793.89
885.095	3639.91
885.275	3203.48
885.456	2748.83
885.636	2300.12
885.817	2791.64
885.997	2815.39
886.178	2360.74
886.358	2487.92
886.538	2819.08
886.719	3953.04
886.899	2388.39
887.08	2543.63
887.26	3127.91
887.44	2603.22
887.621	2360.74
887.801	2545.88
887.981	3358.92
888.161	3025.52
888.342	2478.3
888.522	2542.6
888.702	3066.07
888.882	3137.95
889.062	2599.74
889.242	2278.42
889.423	3244.44
889.603	3019.37
889.783	2617.56
889.963	2499.8
890.143	2979.03
890.323	3138.77
890.503	2501.85
890.683	2569.64
890.863	2880.72
891.043	2894.65
891.223	2595.44
891.403	2733.68
891.583	2898.13
891.763	2946.67
891.943	2573.12
892.122	2542.6
892.302	2852.87
892.482	2825.43
892.662	2689.24
892.842	2572.1
893.022	2968.17
893.201	2732.66
893.381	2694.97
893.561	2490.79
893.741	3077.94
893.92	2913.7
894.1	2711.97
894.28	2625.96
894.459	3084.91
894.639	2978.62
894.819	2547.31
894.998	2672.65
895.178	2960.39
895.357	2939.91
895.537	2497.75
895.716	2402.32
895.896	2843.66
896.075	3240.14
896.255	2527.24
896.434	2291.52
896.614	3238.5
896.793	3184.44
896.973	2688.83
897.152	2635.99
897.331	2909.6
897.511	3061.97
897.69	2384.09
897.87	2638.86
898.049	2999.92
898.228	2880.31
898.407	2743.1
898.587	2658.52
898.766	2666.1
898.945	3041.49
899.124	2844.47
899.304	2594.83
899.483	3014.25
899.662	3315.1
899.841	2461.71
900.02	2470.52
900.199	3140.61
900.378	2934.38
900.557	2426.69
900.737	2417.06
900.916	2906.53
901.095	2997.66
901.274	2807.41
901.453	2332.69
901.632	2638.04
901.811	2631.69
901.989	2446.96
902.168	2411.53
902.347	3014.25
902.526	2692.11
902.705	2460.89
902.884	2587.25
903.063	3187.92
903.242	3121.97
903.42	2409.08
903.599	2604.66
903.778	3051.52
903.957	3225.19
904.135	2630.46
904.314	2551.82
904.493	2901
904.672	2856.56
904.85	2494.68
905.029	2455.16
905.207	2883.8
905.386	3466.44
905.565	2278.42
905.743	2417.88
905.922	2671.63
906.1	2951.17
906.279	2275.75
906.457	2356.85
906.636	2677.57
906.814	2699.07
906.993	2412.76
907.171	2322.65
907.35	2881.34
907.528	2993.16
907.707	2635.58
907.885	2285.79
908.063	3096.58
908.242	2594.62
908.42	2407.03
908.598	2146.53
908.777	2864.95
908.955	2555.92
909.133	2564.52
909.311	2247.9
909.49	2600.56
909.668	2655.24
909.846	2332.28
910.024	2119.29
910.202	2696.2
910.38	2831.57
910.559	2218
910.737	2249.95
910.915	2699.89
911.093	2736.75
911.271	2323.06
911.449	2521.31
911.627	2760.71
911.805	3203.28
911.983	2294.39
912.161	2228.04
912.339	2675.11
912.517	2942.57
912.695	2418.09
912.872	2310.77
913.05	2424.85
913.228	2749.65
913.406	2260.6
913.584	2192.81
913.762	2831.37
913.939	2502.87
914.117	2200.18
914.295	2119.7
914.473	2637.02
914.65	2740.23
914.828	2244.42
915.006	2165.37
915.184	2300.53
915.361	2652.58
915.539	2391.87
915.716	2446.15
915.894	2625.34
916.072	2729.38
916.249	2547.11
916.427	2340.67
916.604	2267.36
916.782	2735.32
916.959	2072.8
917.137	2157.18
917.314	2530.52
917.492	2543.63
917.669	2305.86
917.847	2239.3
918.024	2558.99
918.201	2309.96
918.379	2196.7
918.556	2213.29
918.733	2658.31
918.911	2386.75
919.088	2358.29
919.265	2106.8
919.442	2583.97
919.62	2425.67
919.797	2091.85
919.974	1978.59
920.151	2518.23
920.328	2467.44
920.506	2022.63
920.683	2643.57
920.86	2181.55
921.037	2247.9
921.214	2124.61
921.391	2011.36
921.568	2586.23
921.745	2208.58
921.922	2121.13
922.099	1998.66
922.276	2579.88
922.453	2421.98
922.63	1989.45
922.807	2375.69
922.984	2393.72
923.161	2186.67
923.338	2093.89
923.514	1952.58
923.691	2410.1
923.868	2496.12
924.045	1962.41
924.222	1879.68
924.399	2379.38
924.575	2506.97
924.752	2056.83
924.929	2071.98
925.105	2368.94
925.282	2066.86
925.459	2038.39
925.635	2001.74
925.812	2292.14
925.989	2129.12
926.165	2079.97
926.342	1788.95
926.518	2048.84
926.695	2233.77
926.871	1912.85
927.048	1822.33
927.224	2473.38
927.401	2162.5
927.577	1988.01
927.754	1787.11
927.93	2448.6
928.107	2454.34
928.283	1781.58
928.459	2026.31
928.636	2363
928.812	2125.64
928.988	1804.11
929.165	1718.5
929.341	2113.76
929.517	2205.3
929.693	2232.13
929.87	1633.92
930.046	2311.18
930.222	2024.67
930.398	1714
930.574	1970.4
930.751	2102.5
930.927	2016.07
931.103	1833.6
931.279	1883.36
931.455	1937.43
931.631	2200.8
931.807	1608.94
931.983	1693.31
932.159	1769.29
932.335	2138.95
932.511	1805.95
932.687	1750.65
932.863	2092.46
933.039	2151.03
933.215	1658.29
933.391	1596.44
933.566	2045.56
933.742	2107.82
933.918	1758.23
934.094	1593.99
934.27	2052.73
934.445	2062.36
934.621	1901.59
934.797	1663.21
934.973	2198.96
935.148	2071.78
935.324	1577.4
935.5	1493.43
935.675	2255.48
935.851	2123.18
936.027	1800.83
936.202	1765.2
936.378	2151.85
936.553	1917.77
936.729	2201.41
936.904	1643.75
937.08	1722.39
937.255	1825.2
937.431	1636.79
937.606	1535
937.782	1847.52
937.957	2027.54
938.133	1703.76
938.308	1585.38
938.483	1940.71
938.659	1720.55
938.834	1756.18
939.009	1546.27
939.185	1912.03
939.36	1700.68
939.535	1281.87
939.71	1732.84
939.886	2192.61
940.061	1960.78
940.236	1894.01
940.411	1677.95
940.586	1999.48
940.761	2050.89
940.937	1729.36
941.112	1521.08
941.287	1913.47
941.462	1885.21
941.637	1464.35
941.812	1642.73
941.987	1918.79
942.162	1815.17
942.337	1686.76
942.512	1555.48
942.687	2132.6
942.862	1992.72
943.037	1409.67
943.212	1242.14
943.386	1720.55
943.561	1869.85
943.736	1729.56
943.911	1890.74
944.086	1972.04
944.26	1881.93
944.435	1503.87
944.61	1659.11
944.785	2021.4
944.959	2252.61
945.134	1548.52
945.309	1416.84
945.483	1589.89
945.658	2014.84
945.833	1184.19
946.007	1276.75
946.182	2086.93
946.357	1519.03
946.531	1380.38
946.706	1353.35
946.88	1318.33
947.055	1804.72
947.229	1394.72
947.404	1303.38
947.578	1862.06
947.752	1630.03
947.927	1237.23
948.101	1206.3
948.276	1959.34
948.45	1726.28
948.624	1603.82
948.799	1264.06
948.973	1714.41
949.147	1360.31
949.321	1370.96
949.496	1359.29
949.67	1965.28
949.844	1545.24
950.018	1338.19
950.193	1313.82
950.367	2134.85
950.541	1539.51
950.715	1430.15
950.889	1427.9
951.063	1539.3
951.237	1711.74
951.411	1059.47
951.585	1101.45
951.759	1688.19
951.933	1572.28
952.107	1246.04
952.281	1436.5
952.455	1899.34
952.629	1676.72
952.803	1214.5
952.977	1230.06
953.151	1729.15
953.325	1527.02
953.499	1375.67
953.672	1048.61
953.846	1273.07
954.02	1433.42
954.194	1135.85
954.368	1139.95
954.541	1655.63
954.715	1388.57
954.889	1267.95
955.062	1081.17
955.236	1404.96
955.41	1387.55
955.583	1340.45
955.757	1000.69
955.93	1376.49
956.104	1180.09
956.278	1125.82
956.451	1142
956.625	1574.53
956.798	1846.7
956.972	1422.57
957.145	1030.59
957.319	1517.19
957.492	1385.71
957.665	1309.32
957.839	1029.16
958.012	1510.02
958.185	1255.87
958.359	1116.6
958.532	1312.39
958.705	1529.68
958.879	1432.81
959.052	1165.14
959.225	890.1
959.398	1395.33
959.572	1446.33
959.745	1035.3
959.918	1070.32
960.091	1320.17
960.264	1538.28
960.438	967.31
960.611	949.08
960.784	1575.76
960.957	1183.57
961.13	1473.36
961.303	971.61
961.476	1349.05
961.649	1632.28
961.822	920.82
961.995	1122.75
962.168	1363.79
962.341	1435.88
962.514	1011.95
962.686	968.74
962.859	1381.2
963.032	1466.81
963.205	978.16
963.378	792.62
963.551	1360.72
963.723	1212.24
963.896	1115.37
964.069	1179.89
964.242	1283.31
964.414	1576.58
964.587	1046.97
964.76	1111.69
964.932	1336.56
965.105	1239.28
965.278	943.96
965.45	903.21
965.623	1296.01
965.795	1387.55
965.968	1003.35
966.14	939.04
966.313	1184.8
966.485	1291.5
966.658	923.48
966.83	898.7
967.003	1460.46
967.175	1407.21
967.348	904.64
967.52	938.02
967.692	1614.87
967.865	1432.61
968.037	929.42
968.209	1196.88
968.382	1276.75
968.554	1410.08
968.726	956.66
968.898	862.04
969.071	1288.84
969.243	1320.99
969.415	943.76
969.587	1006.63
969.759	1600.95
969.932	1302.56
970.104	958.09
970.276	579.83
970.448	1083.63
970.62	1075.44
970.792	1027.93
970.964	951.54
971.136	1621.43
971.308	1254.84
971.48	785.86
971.652	805.93
971.824	1521.69
971.996	1026.9
972.168	914.06
972.339	922.05
972.511	1314.85
972.683	1114.56
972.855	1091.21
973.027	796.1
973.199	1197.5
973.37	1330.21
973.542	979.8
973.714	1059.47
973.886	1047.38
974.057	1304.61
974.229	790.98
974.401	817.19
974.572	920
974.744	671.38
974.915	686.33
975.087	765.99
975.259	1463.94
975.43	946.42
975.602	793.02
975.773	675.47
975.945	898.7
976.116	1283.31
976.288	657.86
976.459	981.03
976.63	945.6
976.802	1145.07
976.973	694.93
977.145	944.37
977.316	1567.16
977.487	1161.04
977.659	933.52
977.83	784.22
978.001	1444.48
978.172	1150.8
978.344	700.66
978.515	771.73
978.686	913.85
978.857	1402.5
979.028	747.76
979.2	672.6
979.371	1321.4
979.542	997.62
979.713	862.25
979.884	346.16
980.055	886.62
980.226	940.89
980.397	664.41
980.568	566.72
980.739	1221.87
980.91	901.36
981.081	882.32
981.252	659.5
981.423	1015.84
981.594	1122.75
981.765	611.98
981.936	828.66
982.106	983.08
982.277	1285.56
982.448	612.6
982.619	886.82
982.79	808.38
982.96	1115.58
983.131	833.16
983.302	431.97
983.472	876.17
983.643	1016.66
983.814	789.13
983.984	605.02
984.155	894.81
984.326	1159.41
984.496	795.28
984.667	663.18
984.837	709.67
985.008	1252.59
985.178	956.86
985.349	669.12
985.519	868.8
985.69	708.24
985.86	620.18
986.031	557.92
986.201	999.87
986.371	1006.63
986.542	457.57
986.712	373.4
986.882	957.68
987.053	1023.83
987.223	524.74
987.393	781.76
987.563	811.66
987.734	1012.57
987.904	948.88
988.074	513.27
988.244	902.18
988.414	763.53
988.585	497.09
988.755	664.82
988.925	842.18
989.095	1292.52
989.265	453.68
989.435	636.56
989.605	1017.69
989.775	1016.25
989.945	880.06
990.115	359.67
990.285	819.44
990.455	886
990.625	642.7
990.795	423.37
990.965	1185.42
991.134	641.88
991.304	483.58
991.474	436.27
991.644	886.41
991.814	1174.56
991.984	335.3
992.153	477.84
992.323	720.94
992.493	831.53
992.662	283.9
992.832	650.49
993.002	766.2
993.171	948.88
993.341	284.31
993.511	466.37
993.68	646.19
993.85	972.63
994.019	310.32
994.189	317.49
994.358	797.53
994.528	660.52
994.697	145.05
994.867	317.08
995.036	953.18
995.206	627.55
995.375	347.59
995.544	585.98
995.714	973.04
995.883	682.23
996.052	642.5
996.222	128.25
996.391	1160.02
996.56	797.94
996.73	300.08
996.899	255.02
997.068	1091.21
997.237	717.86
997.406	277.14
997.576	297.42
997.745	881.09
997.914	726.67
998.083	105.11
998.252	314.82
998.421	764.15
998.59	490.33
998.759	223.69
998.928	121.7
999.097	982.05
999.266	756.57
999.435	496.07
999.604	77.87
999.773	1096.94
999.942	599.29
1000.111	102.45
1000.28	76.24
1000.448	434.02
1000.617	442.21
1000.786	493.41
1000.955	152.01
1001.124	801.63
1001.292	1271.43
1001.461	285.13
1001.63	175.77
1001.798	972.43
1001.967	886.62
1002.136	125.59
1002.304	187.03
1002.473	664.41
1002.642	673.22
1002.81	304.38
1002.979	284.31
1003.147	828.86
1003.316	1122.13
1003.484	212.02
1003.653	162.86
1003.821	877.81
1003.99	534.37
1004.158	388.55
1004.327	362.54
1004.495	738.75
1004.663	446.3
1004.832	404.93
1005	62.1
1005.168	732.81
1005.337	615.88
1005.505	26.47
1005.673	420.09
1005.842	738.55
1006.01	624.27
1006.178	75.42
1006.346	178.02
1006.514	651.71
1006.683	1001.92
1006.851	158.36
1007.019	316.46
1007.187	309.7
1007.355	77.67
1007.523	-42.14
1007.691	23.4
1007.859	230.65
1008.027	922.87
1008.195	153.65
1008.363	15.62
1008.531	646.8
1008.699	459.62
1008.867	-24.93
1009.035	118.22
1009.203	881.5
1009.37	512.66
1009.538	164.71
1009.706	649.87
1009.874	546.45
1010.042	508.36
1010.209	-6.3
1010.377	37.94
1010.545	739.78
1010.713	570.62
1010.88	71.73
1011.048	122.52
1011.216	420.91
1011.383	860.4
1011.551	115.56
1011.718	-15.1
1011.886	727.28
1012.054	561.4
1012.221	12.13
1012.389	27.7
1012.556	457.57
1012.724	906.28
1012.891	224.1
1013.058	-141.87
1013.226	657.45
1013.393	684.69
1013.561	-92.72
1013.728	-116.27
1013.895	757.19
1014.063	630.01
1014.23	-134.5
1014.397	57.6
1014.565	695.95
1014.732	386.71
1014.899	-39.27
1015.066	-61.59
1015.233	546.45
1015.401	660.52
1015.568	90.37
1015.735	206.28
1015.902	549.93
1016.069	779.92
1016.236	83.4
1016.403	-98.66
1016.57	240.48
1016.737	756.98
1016.904	77.67
1017.071	-67.12
1017.238	260.55
1017.405	628.16
1017.572	57.8
1017.739	273.05
1017.906	667.89
1018.073	704.55
1018.24	-50.94
1018.407	127.64
1018.573	654.58
1018.74	387.53
1018.907	105.52
1019.074	-211.3
1019.241	673.01
1019.407	443.23
1019.574	-39.07
1019.741	-135.11
1019.907	586.79
1020.074	830.71
1020.241	-295.27
1020.407	-146.17
1020.574	493
1020.74	515.93
1020.907	-7.73
1021.073	-88.22
1021.24	1020.55
1021.406	702.71
1021.573	-134.5
1021.739	11.72
1021.906	690.42
1022.072	403.3
1022.239	-18.99
1022.405	-7.12
1022.571	464.53
1022.738	271.2
1022.904	-61.39
1023.07	90.98
1023.237	456.54
1023.403	691.86
1023.569	2.92
1023.735	27.08
1023.902	494.43
1024.068	515.32
1024.234	-158.46
1024.4	-73.88
1024.566	422.34
1024.732	556.07
1024.898	-42.55
1025.065	-259.84
1025.231	536.62
1025.397	303.56
1025.563	-6.3
1025.729	-162.76
1025.895	-63.64
1026.061	169.62
1026.227	-262.5
1026.392	-16.95
1026.558	622.22
1026.724	550.95
1026.89	-136.96
1027.056	32.2
1027.222	443.85
1027.388	267.31
1027.553	-38.86
1027.719	-151.7
1027.885	813.91
1028.051	459.21
1028.216	-323.53
1028.382	-43.37
1028.548	528.02
1028.713	278.57
1028.879	-223.59
1029.045	80.33
1029.21	722.98
1029.376	632.87
1029.541	-30.67
1029.707	-69.78
1029.873	557.71
1030.038	586.18
1030.204	-99.68
1030.369	-72.45
1030.534	534.16
1030.7	239.05
1030.865	-6.5
1031.031	-157.44
1031.196	452.04
1031.361	444.46
1031.527	-145.35
1031.692	-110.33
1031.857	-30.26
1032.023	520.64
1032.188	-168.7
1032.353	-66.92
1032.518	653.15
1032.684	358.24
1032.849	-274.17
1033.014	-20.02
1033.179	431.56
1033.344	490.74
1033.509	-3.23
1033.674	-109.11
1033.839	517.78
1034.004	512.45
1034.17	-115.45
1034.335	-235.26
1034.5	265.26
1034.664	180.48
1034.829	-141.26
1034.994	-66.92
1035.159	285.95
1035.324	418.86
1035.489	-108.7
1035.654	-163.79
1035.819	734.04
1035.984	389.37
1036.148	-25.34
1036.313	-96.82
1036.478	557.92
1036.643	293.53
1036.807	-145.56
1036.972	-245.09
1037.137	748.58
1037.301	311.96
1037.466	-339.3
1037.631	-8.96
1037.795	555.05
1037.96	334.07
1038.124	77.05
1038.289	-214.58
1038.454	426.03
1038.618	522.9
1038.783	-79.21
1038.947	-42.34
1039.111	321.79
1039.276	217.96
1039.44	-183.45
1039.605	410.26
1039.769	242.74
1039.933	311.14
1040.098	-49.92
1040.262	163.89
1040.426	556.48
1040.591	471.49
1040.755	-172.59
1040.919	-61.18
1041.083	493.41
1041.248	249.08
1041.412	-328.24
1041.576	-214.78
1041.74	236.18
1041.904	436.27
1042.068	-200.65
1042.232	-90.67
1042.397	580.04
1042.561	392.65
1042.725	-355.27
1042.889	53.71
1043.053	477.84
1043.217	386.5
1043.381	-84.12
1043.544	-275.2
1043.708	526.17
1043.872	78.28
1044.036	-383.33
1044.2	-292.19
1044.364	580.04
1044.528	621.4
1044.691	1284.74
1044.855	-264.75
1045.019	451.22
1045.183	438.73
1045.346	-107.26
1045.51	-275.81
1045.674	463.1
1045.837	462.28
1046.001	-144.94
1046.165	-165.83
1046.328	842.38
1046.492	361.93
1046.655	60.88
1046.819	-83.3
1046.983	171.26
1047.146	340.42
1047.31	-59.75
1047.473	-381.08
1047.636	307.45
1047.8	123.34
1047.963	-75.11
1048.127	-222.97
1048.29	90.78
