Data from USB4F045381__5__11-18-52-961.txt Node

Date: Wed Apr 24 11:18:52 EDT 2024
User: dsalmieri
Spectrometer: USB4F04538
Trigger mode: 4
Integration Time (sec): 1.000000E0
Scans to average: 10
Electric dark correction enabled: true
Nonlinearity correction enabled: false
Boxcar width: 0
XAxis mode: Wavelengths
Number of Pixels in Spectrum: 3648
>>>>>Begin Spectral Data<<<<<
345.52	-1133.18
345.736	-1133.18
345.952	-1133.18
346.168	-1105.94
346.384	-1087.3
346.6	-164.49
346.816	-236.98
347.032	-173.29
347.248	386.01
347.464	-244.15
347.68	-163.26
347.896	57.51
348.112	375.15
348.328	-92.4
348.544	-87.07
348.76	76.56
348.975	266.41
349.191	-268.52
349.407	-270.37
349.623	72.46
349.839	-60.65
350.055	-210.16
350.27	6.52
350.486	134.93
350.702	260.88
350.918	227.5
351.133	-180.46
351.349	130.42
351.565	446.63
351.781	-316.85
351.996	-43.04
352.212	213.57
352.428	-95.47
352.644	-301.5
352.859	-256.64
353.075	259.85
353.291	113.83
353.506	-204.01
353.722	-334.67
353.938	-43.86
354.153	464.04
354.369	133.29
354.584	-280.2
354.8	276.03
355.016	-341.23
355.231	-335.7
355.447	-111.65
355.662	199.64
355.878	767.34
356.093	-425.4
356.309	-60.86
356.524	-212.2
356.74	286.07
356.955	-311.53
357.171	-123.94
357.386	187.76
357.602	-211.38
357.817	-148.92
358.033	-240.47
358.248	354.67
358.464	226.47
358.679	-222.85
358.895	-366.42
359.11	13.07
359.325	215
359.541	258.83
359.756	-70.89
359.972	-266.47
360.187	226.68
360.402	-229
360.618	-207.7
360.833	1093.38
361.048	153.36
361.264	-223.47
361.479	-83.59
361.694	18.4
361.909	224.01
362.125	-285.93
362.34	-148.1
362.555	210.7
362.77	107.69
362.986	-351.26
363.201	-279.38
363.416	191.86
363.631	24.75
363.847	-292.48
364.062	-238.62
364.277	160.73
364.492	51.17
364.707	-224.7
364.922	-413.52
365.138	241.42
365.353	359.18
365.568	-352.28
365.783	-229.82
365.998	127.96
366.213	531.82
366.428	-317.47
366.643	30.07
366.858	273.16
367.073	213.98
367.288	-191.31
367.503	-299.65
367.718	68.37
367.933	369.83
368.148	-352.08
368.363	-135.81
368.578	22.7
368.793	422.46
369.008	-204.22
369.223	-341.43
369.438	232.21
369.653	342.18
369.868	-319.52
370.083	-298.22
370.298	126.33
370.513	397.27
370.728	-1.47
370.943	-258.69
371.157	-150.76
371.372	543.91
371.587	-379.32
371.802	-364.78
372.017	55.67
372.232	437.41
372.446	-99.36
372.661	-301.7
372.876	169.95
373.091	212.55
373.306	-144.21
373.52	-393.04
373.735	-114.31
373.95	431.68
374.165	-197.25
374.379	-204.42
374.594	-78.68
374.809	154.18
375.023	-30.75
375.238	-310.1
375.453	254.73
375.667	-254.6
375.882	-256.24
376.097	-285.73
376.311	28.84
376.526	58.95
376.741	-293.71
376.955	91.51
377.17	481.85
377.384	679.28
377.599	-78.88
377.813	-388.74
378.028	584.25
378.242	192.07
378.457	-160.59
378.672	-421.92
378.886	56.08
379.101	15.53
379.315	-431.54
379.53	-222.03
379.744	256.78
379.958	196.98
380.173	-257.87
380.387	-273.64
380.602	169.33
380.816	-113.7
381.031	-217.32
381.245	-197.66
381.459	152.54
381.674	3141.14
381.888	-300.06
382.103	113.01
382.317	-165.71
382.531	386.42
382.746	-135.2
382.96	-290.44
383.174	-69.26
383.388	497.42
383.603	-11.71
383.817	-349.62
384.031	126.94
384.246	456.05
384.46	-78.27
384.674	375.97
384.888	-11.5
385.103	81.48
385.317	-376.25
385.531	-67.41
385.745	422.46
385.959	312.28
386.174	-323.61
386.388	-306.62
386.602	10
386.816	-114.52
387.03	-144.21
387.244	-176.98
387.458	107.69
387.672	353.24
387.887	-416.18
388.101	-339.59
388.315	302.25
388.529	110.97
388.743	-232.27
388.957	-321.36
389.171	330.71
389.385	-202.99
389.599	-269.14
389.813	-40.58
390.027	178.96
390.241	605.35
390.455	-184.15
390.669	-169.4
390.883	-104.89
391.097	463.63
391.311	-14.17
391.525	-242.92
391.738	255.76
391.952	197.39
392.166	-116.77
392.38	-352.9
392.594	254.73
392.808	310.03
393.022	-162.85
393.236	-225.31
393.449	183.67
393.663	244.9
393.877	-335.7
394.091	-158.14
394.305	40.93
394.518	-105.5
394.732	-361.09
394.946	-214.46
395.16	464.65
395.373	110.97
395.587	-285.32
395.801	-247.84
396.015	288.93
396.228	222.38
396.442	-387.1
396.656	-436.66
396.869	330.1
397.083	516.67
397.297	-144.21
397.51	-246.81
397.724	306.75
397.938	142.91
398.151	-390.58
398.365	-386.08
398.578	235.89
398.792	374.54
399.005	-78.47
399.219	-220.4
399.433	129.6
399.646	235.48
399.86	-33.62
400.073	-21.33
400.287	212.95
400.5	-0.85
400.714	-25.63
400.927	-158.34
401.141	248.79
401.354	1177.75
401.567	204.56
401.781	-356.18
401.994	197.8
402.208	614.56
402.421	-206.88
402.635	-174.52
402.848	-52.46
403.061	279.31
403.275	-141.75
403.488	-308.66
403.701	440.28
403.915	278.9
404.128	-13.14
404.341	-256.03
404.555	282.59
404.768	-57.99
404.981	-61.06
405.195	-255.42
405.408	438.85
405.621	267.02
405.834	-26.04
406.048	-330.78
406.261	386.42
406.474	401.78
406.687	-298.22
406.9	-91.37
407.114	87.41
407.327	255.14
407.54	-378.09
407.753	-417.82
407.966	-136.22
408.179	195.14
408.392	-300.88
408.605	-440.35
408.819	143.94
409.032	211.73
409.245	-272.41
409.458	-56.97
409.671	210.91
409.884	270.91
410.097	-354.13
410.31	-72.12
410.523	283.4
410.736	-7.2
410.949	-167.76
411.162	-210.16
411.375	375.97
411.588	227.7
411.801	-56.35
412.014	-221.21
412.227	26.18
412.44	-26.25
412.653	-240.88
412.865	-39.56
413.078	305.32
413.291	218.48
413.504	-140.32
413.717	-298.22
413.93	273.78
414.143	-146.46
414.356	-143.19
414.568	-395.29
414.781	261.7
414.994	162.37
415.207	-114.11
415.42	-132.54
415.632	249.61
415.845	562.34
416.058	-400.82
416.271	-345.12
416.483	112.19
416.696	505.2
416.909	-260.33
417.121	-316.85
417.334	123.25
417.547	471.61
417.759	-299.24
417.972	-308.66
418.185	-67.21
418.397	249.61
418.61	-232.68
418.823	-292.89
419.035	420.82
419.248	60.79
419.46	-191.52
419.673	-93.83
419.885	117.93
420.098	20.04
420.311	-243.74
420.523	-482.13
420.736	229.54
420.948	55.06
421.161	-249.07
421.373	-423.35
421.586	-5.77
421.798	-109.81
422.01	-418.84
422.223	-77.65
422.435	-96.9
422.648	315.15
422.86	-233.09
423.073	-217.53
423.285	239.58
423.497	-255.83
423.71	-283.47
423.922	-257.87
424.134	363.69
424.347	446.63
424.559	-36.08
424.771	61.81
424.984	58.33
425.196	166.67
425.408	-409.83
425.621	-350.44
425.833	323.54
426.045	370.44
426.257	-327.09
426.47	-216.09
426.682	82.91
426.894	181.21
427.106	-250.71
427.318	-184.56
427.531	-61.88
427.743	205.58
427.955	-195
428.167	301.84
428.379	132.26
428.591	17.78
428.804	-130.49
429.016	-300.47
429.228	20.45
429.44	178.96
429.652	-9.05
429.864	-360.48
430.076	42.36
430.288	52.19
430.5	-209.13
430.712	-126.8
430.924	302.86
431.136	189.2
431.348	-381.57
431.56	-241.69
431.772	26.18
431.984	-35.67
432.196	-301.29
432.408	-273.23
432.62	-1.47
432.832	198.21
433.044	75.33
433.256	-137.04
433.468	217.87
433.679	-270.16
433.891	-326.48
434.103	-32.8
434.315	290.57
434.527	233.02
434.739	-93.83
434.95	-181.69
435.162	264.97
435.374	-78.06
435.586	-140.73
435.798	-241.9
436.009	-151.17
436.221	-17.03
436.433	-217.53
436.645	-190.29
436.856	-25.43
437.068	377.61
437.28	-234.94
437.491	108.51
437.703	297.33
437.915	193.7
438.126	-194.59
438.338	104
438.55	81.68
438.761	187.76
438.973	-141.55
439.184	-142.57
439.396	111.78
439.608	282.59
439.819	-234.73
440.031	-79.5
440.242	311.87
440.454	311.05
440.665	-141.14
440.877	-47.55
441.088	299.58
441.3	92.53
441.511	-318.49
441.723	-191.11
441.934	212.14
442.146	176.09
442.357	12.05
442.569	174.86
442.78	229.75
442.991	634.84
443.203	218.89
443.414	-208.31
443.626	634.02
443.837	6.93
444.048	-200.94
444.26	-277.74
444.471	281.97
444.682	338.09
444.894	-285.93
445.105	-268.73
445.316	463.42
445.528	330.92
445.739	-1.88
445.95	-27.68
446.161	271.94
446.373	436.18
446.584	-70.07
446.795	-104.07
447.006	424.3
447.217	570.73
447.429	-226.74
447.64	-173.91
447.851	605.35
448.062	303.68
448.273	-230.64
448.484	-108.78
448.695	375.97
448.907	291.39
449.118	4.88
449.329	176.71
449.54	96.43
449.751	64.68
449.962	-97.31
450.173	-85.02
450.384	532.44
450.595	567.66
450.806	-109.6
451.017	-46.32
451.228	578.93
451.439	486.36
451.65	-63.32
451.861	-323
452.072	64.07
452.283	203.94
452.494	110.35
452.705	-130.28
452.915	625.62
453.126	301.63
453.337	-22.15
453.548	-149.54
453.759	524.25
453.97	665.56
454.181	159.5
454.391	-119.02
454.602	319.04
454.813	423.28
455.024	-30.75
455.235	-151.79
455.445	413.66
455.656	316.99
455.867	58.54
456.078	-104.69
456.288	145.78
456.499	418.98
456.71	-194.18
456.921	128.37
457.131	293.85
457.342	227.09
457.553	-69.46
457.763	-125.57
457.974	338.9
458.184	397.27
458.395	-208.72
458.606	-156.7
458.816	507.25
459.027	655.52
459.237	26.38
459.448	-267.09
459.659	492.5
459.869	819.97
460.08	-265.45
460.29	-2.08
460.501	603.91
460.711	65.3
460.922	-261.35
461.132	-177.39
461.343	888.17
461.553	-84.21
461.764	-174.11
461.974	-119.43
462.184	430.86
462.395	321.5
462.605	-91.78
462.816	-218.76
463.026	303.47
463.236	439.26
463.447	-193.77
463.657	-183.53
463.867	461.37
464.078	132.47
464.288	-124.96
464.498	-178.41
464.709	218.69
464.919	212.34
465.129	-88.71
465.339	-214.25
465.55	302.66
465.76	423.49
465.97	-122.3
466.18	-171.86
466.391	402.19
466.601	311.67
466.811	-74.38
467.021	-313.37
467.231	350.58
467.441	465.47
467.651	-144.83
467.862	-401.44
468.072	162.37
468.282	424.51
468.492	-196.02
468.702	-89.94
468.912	200.87
469.122	821
469.332	144.76
469.542	-218.35
469.752	430.86
469.962	227.7
470.172	-259.92
470.382	-218.76
470.592	408.13
470.802	407.31
471.012	4.47
471.222	-162.64
471.432	362.46
471.642	423.49
471.852	-39.76
472.062	-224.49
472.272	149.67
472.482	-78.68
472.691	-213.43
472.901	-284.09
473.111	186.54
473.321	693.61
473.531	-249.48
473.741	-57.38
473.95	345.25
474.16	387.03
474.37	-32.8
474.58	-253.78
474.79	677.02
474.999	358.36
475.209	-202.37
475.419	-139.91
475.628	171.38
475.838	547.8
476.048	-61.88
476.258	-281.02
476.467	504.38
476.677	72.26
476.886	76.56
477.096	-76.01
477.306	83.11
477.515	540.22
477.725	-27.89
477.935	-26.86
478.144	589.17
478.354	84.34
478.563	-72.94
478.773	-168.58
478.982	423.08
479.192	461.37
479.401	-19.49
479.611	-183.12
479.82	23.11
480.03	317.4
480.239	-175.55
480.449	-231.45
480.658	604.73
480.868	84.14
481.077	-15.8
481.287	-89.12
481.496	354.26
481.705	578.31
481.915	200.26
482.124	142.09
482.333	400.75
482.543	659.21
482.752	35.6
482.961	-103.25
483.171	453.59
483.38	216.23
483.589	-2.49
483.799	-143.19
484.008	250.02
484.217	380.27
484.426	-24.61
484.636	-207.49
484.845	524.45
485.054	-53.49
485.263	285.66
485.472	-55.74
485.682	639.55
485.891	333.78
486.1	-199.3
486.309	-88.3
486.518	458.71
486.727	689.52
486.936	-120.25
487.146	90.49
487.355	664.12
487.564	113.63
487.773	-11.5
487.982	-23.18
488.191	217.66
488.4	359.38
488.609	-5.56
488.818	1.81
489.027	840.04
489.236	718.19
489.445	39.29
489.654	-87.07
489.863	656.95
490.072	438.44
490.281	411.81
490.49	78.4
490.698	744.81
490.907	801.34
491.116	59.97
491.325	-89.12
491.534	694.84
491.743	430.24
491.952	122.43
492.16	91.1
492.369	554.35
492.578	681.73
492.787	136.36
492.996	160.73
493.204	268.25
493.413	857.86
493.622	-108.58
493.831	-150.97
494.039	922.58
494.248	174.25
494.457	54.65
494.665	-89.12
494.874	629.1
495.083	993.23
495.291	80.25
495.5	18.4
495.709	652.45
495.917	496.8
496.126	219.71
496.335	28.23
496.543	385.39
496.752	589.37
496.96	396.25
497.169	-39.15
497.377	475.3
497.586	741.54
497.794	213.57
498.003	-117.79
498.211	485.74
498.42	817.72
498.628	223.19
498.837	69.6
499.045	634.84
499.254	513.19
499.462	154.79
499.671	63.86
499.879	1077.2
500.087	824.27
500.296	55.47
500.504	170.77
500.713	610.87
500.921	1043.41
501.129	150.08
501.338	96.83
501.546	657.98
501.754	600.64
501.962	231.59
502.171	82.5
502.379	658.39
502.587	950.63
502.795	269.27
503.004	244.7
503.212	691.56
503.42	904.14
503.628	237.74
503.837	308.19
504.045	772.25
504.253	1093.17
504.461	240.6
504.669	62.84
504.877	863.59
505.085	938.55
505.294	98.06
505.502	482.88
505.71	768.77
505.918	775.12
506.126	158.68
506.334	220.74
506.542	626.85
506.75	708.15
506.958	443.35
507.166	291.39
507.374	537.97
507.582	1087.85
507.79	411.2
507.998	259.65
508.206	928.51
508.414	834.92
508.622	255.96
508.83	352.83
509.037	859.09
509.245	603.09
509.453	276.44
509.661	226.27
509.869	935.89
510.077	627.05
510.285	482.26
510.492	33.76
510.7	1295.51
510.908	624.8
511.116	377.82
511.324	291.6
511.531	653.47
511.739	817.11
511.947	533.26
512.155	677.43
512.362	802.97
512.57	449.7
512.778	323.75
512.985	177.93
513.193	961.69
513.401	1122.25
513.608	439.87
513.816	356.93
514.024	883.66
514.231	1072.28
514.439	389.28
514.646	415.91
514.854	1047.09
515.061	1044.63
515.269	458.51
515.477	397.89
515.684	591.01
515.892	1077.81
516.099	283.81
516.307	275.01
516.514	1021.49
516.722	1225.47
516.929	449.7
517.136	330.1
517.344	1198.03
517.551	948.99
517.759	392.77
517.966	495.57
518.173	784.54
518.381	847.01
518.588	560.9
518.796	399.11
519.003	1076.58
519.21	935.68
519.418	458.92
519.625	808.3
519.832	845.78
520.039	998.35
520.247	293.85
520.454	538.17
520.661	1120.61
520.868	1033.17
521.076	480.83
521.283	606.78
521.49	1491.09
521.697	996.92
521.904	558.04
522.112	549.85
522.319	1142.94
522.526	1018.83
522.733	447.65
522.94	535.1
523.147	932.41
523.354	1075.97
523.561	404.03
523.768	694.84
523.975	1240.22
524.183	962.92
524.39	716.55
524.597	439.66
524.804	920.53
525.011	772.25
525.218	563.36
525.425	534.08
525.632	1319.88
525.838	782.49
526.045	572.17
526.252	593.88
526.459	1964.99
526.666	1953.73
526.873	543.7
527.08	543.91
527.287	1309.85
527.494	1211.75
527.701	480.01
527.907	505.61
528.114	1150.31
528.321	970.09
528.528	635.04
528.735	588.14
528.941	885.3
529.148	858.68
529.355	710.82
529.562	576.26
529.768	1357.15
529.975	919.09
530.182	661.05
530.388	593.67
530.595	1280.15
530.802	739.28
531.008	846.6
531.215	678.05
531.422	1795.22
531.628	1806.89
531.835	739.9
532.042	746.45
532.248	941.62
532.455	1134.95
532.661	728.63
532.868	649.17
533.074	1163.21
533.281	1336.06
533.487	654.09
533.694	634.84
533.9	853.35
534.107	1148.06
534.313	632.99
534.52	571.35
534.726	1240.22
534.933	1617.04
535.139	613.13
535.345	556.4
535.552	1307.39
535.758	1160.96
535.965	762.83
536.171	639.14
536.377	1302.06
536.584	1524.47
536.79	721.87
536.996	826.32
537.203	1228.13
537.409	1350.19
537.615	764.06
537.821	722.9
538.028	1354.08
538.234	1287.11
538.44	799.7
538.646	830.21
538.853	1236.94
539.059	1089.89
539.265	1228.75
539.471	524.86
539.677	1394.02
539.883	1020.88
540.09	720.65
540.296	1179.19
540.502	1161.16
540.708	993.03
540.914	1016.17
541.12	786.8
541.326	1333.19
541.532	1178.16
541.738	914.18
541.944	869.53
542.15	1444.6
542.356	1154.61
542.562	732.52
542.768	881.41
542.974	1751.39
543.18	1715.75
543.386	809.32
543.592	663.3
543.798	1624.41
544.004	1557.45
544.21	778.81
544.415	963.94
544.621	1339.54
544.827	1559.7
545.033	762.22
545.239	1147.85
545.445	951.25
545.651	1309.64
545.856	844.14
546.062	803.18
546.268	1138.23
546.474	1297.15
546.679	914.79
546.885	931.59
547.091	1123.07
547.297	1743.81
547.502	1020.47
547.708	746.66
547.914	1070.23
548.119	1499.69
548.325	781.27
548.531	757.51
548.736	1735.82
548.942	1104.23
549.147	851.92
549.353	1137.2
549.559	1590.21
549.764	1450.13
549.97	889.6
550.175	910.08
550.381	1485.77
550.586	1132.9
550.792	950.02
550.997	937.94
551.203	1487.2
551.408	1529.39
551.614	790.48
551.819	889.4
552.025	1794.81
552.23	1673.36
552.435	838.81
552.641	1114.06
552.846	1167.72
553.052	1708.18
553.257	1137.2
553.462	934.86
553.668	1171.81
553.873	1574.85
554.078	889.4
554.283	922.17
554.489	1480.44
554.694	1354.29
554.899	858.68
555.105	1188.81
555.31	1559.08
555.515	1589.6
555.72	1071.46
555.925	1494.78
556.131	1589.8
556.336	1271.75
556.541	953.3
556.746	891.86
556.951	1771.66
557.156	1712.27
557.361	1124.1
557.567	1190.45
557.772	1870.58
557.977	1569.53
558.182	1016.17
558.387	960.87
558.592	1274.21
558.797	1807.91
559.002	1105.87
559.207	1200.89
559.412	1455.87
559.617	1940.62
559.822	1028.66
560.027	961.08
560.232	1473.48
560.437	1657.39
560.642	876.5
560.847	965.58
561.051	1458.12
561.256	1505.84
561.461	1117.54
561.666	904.14
561.871	1484.54
562.076	1648.58
562.281	1124.92
562.485	947.97
562.69	1677.05
562.895	1675.61
563.1	1080.06
563.305	950.02
563.509	1744.22
563.714	2010.46
563.919	1065.52
564.123	1091.53
564.328	1415.52
564.533	1789.07
564.737	1131.26
564.942	1063.27
565.147	1841.29
565.351	1905.19
565.556	1233.87
565.761	1216.66
565.965	1587.96
566.17	1300.63
566.374	1158.71
566.579	996.71
566.784	1604.55
566.988	1461.81
567.193	980.74
567.397	1251.68
567.602	1228.34
567.806	1501.74
568.011	1156.04
568.215	1200.08
568.42	1506.25
568.624	1550.48
568.828	1146.42
569.033	1355.93
569.237	1765.72
569.442	1719.85
569.646	1021.49
569.85	1158.3
570.055	1524.47
570.259	1637.52
570.463	1457.51
570.668	1221.78
570.872	1582.43
571.076	1486.18
571.281	1342.82
571.485	1283.02
571.689	1632.81
571.893	1791.73
572.098	1367.8
572.302	1191.06
572.506	1756.1
572.71	1651.86
572.914	1248.61
573.119	1189.22
573.323	1956.39
573.527	1955.16
573.731	1263.97
573.935	1169.56
574.139	1691.38
574.343	1477.17
574.547	1291.41
574.751	1359.2
574.955	1880.82
575.159	1911.54
575.364	1281.18
575.568	1138.02
575.772	1675.41
575.976	1867.51
576.18	1204.99
576.383	1158.71
576.587	1953.52
576.791	1800.34
576.995	1088.67
577.199	1070.64
577.403	1774.53
577.607	1920.35
577.811	1171.61
578.015	1378.86
578.219	1772.89
578.422	1883.28
578.626	1375.38
578.83	1567.07
579.034	2061.66
579.238	1771.46
579.442	1248.61
579.645	1752
579.849	1706.33
580.053	1734.39
580.257	1358.38
580.46	1412.65
580.664	1971.14
580.868	1850.72
581.071	1539.22
581.275	1461.6
581.479	1451.36
581.682	1956.6
581.886	1287.73
582.09	1496.62
582.293	1980.56
582.497	1980.15
582.7	1587.35
582.904	1312.1
583.107	1797.47
583.311	1696.5
583.515	1486.38
583.718	1462.22
583.922	1944.72
584.125	2316.22
584.329	1360.84
584.532	1559.49
584.735	2164.05
584.939	1913.59
585.142	1244.11
585.346	1331.35
585.549	1918.3
585.753	1687.7
585.956	1443.78
586.159	1570.14
586.363	2202.76
586.566	1920.55
586.769	1389.1
586.973	1312.1
587.176	1963.56
587.379	2078.86
587.582	1781.29
587.786	1722.51
587.989	1848.26
588.192	2584.71
588.395	1598.2
588.599	1810.98
588.802	1961.92
589.005	2071.49
589.208	1518.94
589.411	1470
589.615	2097.09
589.818	2263.59
590.021	1787.02
590.224	1676.43
590.427	2182.28
590.63	2093.19
590.833	1352.03
591.036	1446.04
591.239	1866.07
591.442	1762.45
591.645	1778.63
591.848	1479.42
592.051	1991
592.254	2116.54
592.457	1645.71
592.66	1645.51
592.863	1927.72
593.066	2054.28
593.269	1590.21
593.472	1654.93
593.675	1783.13
593.878	2060.63
594.081	1659.03
594.284	1486.38
594.486	2117.77
594.689	2019.06
594.892	1721.9
595.095	1656.36
595.298	2188.43
595.5	1866.89
595.703	1712.27
595.906	1750.98
596.109	2249.25
596.311	2148.9
596.514	1371.08
596.717	1687.7
596.92	2317.45
597.122	2149.51
597.325	1415.93
597.528	1573.22
597.73	2370.08
597.933	2124.12
598.136	1662.71
598.338	1389.1
598.541	2191.91
598.743	2374.79
598.946	1688.52
599.148	1693.23
599.351	2330.35
599.554	2250.68
599.756	1781.9
599.959	1705.1
600.161	2359.64
600.363	2633.04
600.566	1967.24
600.768	1634.04
600.971	2402.44
601.173	2244.95
601.376	1694.86
601.578	1732.14
601.78	2169.79
601.983	2700.42
602.185	1626.46
602.388	1916.46
602.59	2220.37
602.792	1965.61
602.995	1813.03
603.197	1723.33
603.399	2327.28
603.601	2276.28
603.804	1749.96
604.006	1707.77
604.208	2044.25
604.41	1697.32
604.613	1953.93
604.815	1707.15
605.017	2583.48
605.219	1915.02
605.421	2270.14
605.623	1779.65
605.826	2495.01
606.028	2592.69
606.23	1782.72
606.432	1785.59
606.634	2490.3
606.836	2444.22
607.038	1623.39
607.24	1943.9
607.442	2212.39
607.644	2157.5
607.846	1912.77
608.048	1677.87
608.25	2529.21
608.452	1987.31
608.654	1899.87
608.856	1584.27
609.058	2127.81
609.26	2353.08
609.462	1944.51
609.664	1840.68
609.866	2487.22
610.067	2398.34
610.269	1957.21
610.471	1811.39
610.673	2092.17
610.875	2315.6
611.077	1630.97
611.278	1907.03
611.48	2223.86
611.682	2563
611.884	1927.51
612.085	1912.97
612.287	1987.11
612.489	2276.69
612.69	1722.51
612.892	1848.67
613.094	2529.82
613.295	2351.65
613.497	1729.89
613.699	1885.74
613.9	2583.89
614.102	2405.1
614.304	1870.79
614.505	1735.41
614.707	2190.68
614.908	2225.29
615.11	1670.7
615.311	1936.53
615.513	2376.22
615.714	2369.67
615.916	1700.6
616.117	1865.46
616.319	2201.74
616.52	2390.35
616.722	1820.2
616.923	1840.68
617.124	2553.78
617.326	2371.1
617.527	1981.38
617.729	2066.78
617.93	2395.07
618.131	2377.86
618.333	1825.32
618.534	1940.21
618.735	2190.88
618.937	2595.56
619.138	1777.19
619.339	1738.49
619.54	2351.44
619.742	2137.02
619.943	2016.19
620.144	1903.55
620.345	2497.87
620.546	2457.32
620.748	1862.8
620.949	1918.3
621.15	2418.62
621.351	2335.88
621.552	1818.15
621.753	1714.12
621.954	1891.88
622.155	2720.9
622.356	1725.79
622.558	2061.86
622.759	2233.48
622.96	2740.76
623.161	1943.08
623.362	1863
623.563	2263.79
623.764	2271.57
623.965	1853.79
624.166	2096.68
624.366	2149.31
624.567	2340.79
624.768	1621.34
624.969	1834.33
625.17	2169.17
625.371	2368.85
625.572	1988.34
625.773	1797.47
625.973	2482.31
626.174	2461.21
626.375	1949.84
626.576	2006.98
626.777	2427.42
626.977	2776.6
627.178	1999.19
627.379	1982.4
627.58	2203.17
627.78	2262.56
627.981	1937.34
628.182	2043.84
628.382	2497.87
628.583	1881.84
628.784	1763.27
628.984	2096.68
629.185	2394.04
629.386	2507.5
629.586	2029.91
629.787	1845.19
629.987	2416.36
630.188	2284.88
630.388	1947.38
630.589	2118.59
630.79	2888.83
630.99	2333.83
631.191	1978.71
631.391	2081.11
631.591	2468.18
631.792	2689.36
631.992	2108.76
632.193	1993.46
632.393	2691
632.594	2275.26
632.794	1896.59
632.994	2056.13
633.195	2227.75
633.395	2260.1
633.595	1887.99
633.796	2114.29
633.996	2151.97
634.196	2611.13
634.397	1785.39
634.597	2020.08
634.797	2085
634.997	2716.19
635.198	2223.04
635.398	1896.79
635.598	2413.29
635.798	2541.09
635.998	2366.39
636.199	1888.81
636.399	2117.36
636.599	2064.73
636.799	1916.86
636.999	2254.17
637.199	2410.83
637.399	2591.26
637.599	1889.22
637.799	2039.74
637.999	2149.72
638.199	2586.96
638.399	1907.85
638.599	1909.9
638.799	2463.88
638.999	2691.82
639.199	2106.71
639.399	2006.57
639.599	2556.04
639.799	2014.35
639.999	1833.72
640.199	1838.22
640.399	2289.39
640.599	2415.14
640.799	1989.98
640.998	2147.26
641.198	2466.95
641.398	2391.79
641.598	2079.47
641.798	1963.56
641.997	3248.86
642.197	2278.33
642.397	2099.13
642.597	1848.46
642.796	2417.8
642.996	2472.48
643.196	2119.2
643.395	1818.97
643.595	2316.42
643.795	1849.9
643.994	1910.72
644.194	1957
644.394	2457.94
644.593	2400.59
644.793	1753.23
644.992	2034.42
645.192	2458.55
645.392	1842.11
645.591	2098.31
645.791	1973.18
645.99	2445.04
646.19	2229.59
646.389	1989.77
646.589	1929.77
646.788	2410.22
646.987	2391.58
647.187	2210.13
647.386	2183.92
647.586	2295.94
647.785	2555.63
647.984	1865.46
648.184	2051.01
648.383	2116.34
648.582	2155.25
648.782	1903.55
648.981	2068.82
649.18	2025.61
649.38	2240.65
649.579	1971.55
649.778	1868.33
649.977	2429.68
650.177	2361.07
650.376	1862.18
650.575	1756.3
650.774	2563.82
650.973	2390.97
651.173	1736.03
651.372	2003.49
651.571	2277.72
651.77	2518.97
651.969	1924.85
652.168	2043.63
652.367	1966.84
652.566	2205.01
652.765	1914.2
652.964	2291.03
653.163	2647.38
653.362	2198.67
653.561	1910.52
653.76	1939.39
653.959	2228.77
654.158	2362.5
654.357	2116.13
654.556	1901.71
654.755	2387.9
654.954	2439.51
655.153	1926.9
655.352	2049.57
655.551	2491.12
655.749	2095.45
655.948	2009.23
656.147	2031.35
656.346	2343.05
656.545	2212.8
656.743	1995.92
656.942	2004.72
657.141	2276.49
657.34	2058.17
657.538	1944.72
657.737	1913.38
657.936	2215.87
658.135	2291.85
658.333	1901.5
658.532	2118.38
658.731	2645.53
658.929	2465.11
659.128	2283.66
659.326	1843.75
659.525	2505.45
659.724	2265.22
659.922	1696.09
660.121	1772.89
660.319	2319.09
660.518	2012.71
660.716	1883.07
660.915	1825.73
661.113	2575.29
661.312	1970.73
661.51	2105.48
661.709	1801.56
661.907	2376.22
662.105	2541.9
662.304	1873.86
662.502	1971.95
662.701	2513.23
662.899	2134.36
663.097	2277.31
663.296	1796.03
663.494	2482.51
663.692	2637.34
663.891	1786
664.089	1728.86
664.287	2334.86
664.485	2497.46
664.684	1821.43
664.882	2030.53
665.08	2198.67
665.278	2229.38
665.476	1782.72
665.675	2201.33
665.873	2629.35
666.071	2461.21
666.269	1859.32
666.467	2224.06
666.665	2325.23
666.863	2164.87
667.061	2080.91
667.259	1872.63
667.457	2186.38
667.655	2422.51
667.853	1757.33
668.051	2053.67
668.249	1995.92
668.447	2630.79
668.645	1779.65
668.843	2128.83
669.041	2375.61
669.239	2052.24
669.437	2019.06
669.635	2029.3
669.833	2144.39
670.031	2296.15
670.229	1958.85
670.426	1998.37
670.624	2118.79
670.822	2003.9
671.02	1825.93
671.218	2002.67
671.415	1953.11
671.613	2204.81
671.811	2059.4
672.009	1883.07
672.206	2401
672.404	2180.44
672.602	2159.96
672.799	2014.35
672.997	2341.2
673.195	2390.35
673.392	1985.68
673.59	1730.7
673.788	2387.69
673.985	1638.75
674.183	1981.58
674.38	1862.18
674.578	2382.16
674.775	2003.49
674.973	1749.75
675.17	1740.33
675.368	2483.74
675.565	2419.23
675.763	1856.45
675.96	1847.23
676.158	2432.34
676.355	2149.51
676.553	1825.53
676.75	1909.49
676.947	2152.18
677.145	2137.84
677.342	2026.02
677.539	2016.6
677.737	2346.53
677.934	2656.18
678.131	2124.94
678.329	1856.65
678.526	2691.41
678.723	2394.45
678.92	2042.2
679.118	1965.4
679.315	1955.16
679.512	2548.87
679.709	1915.84
679.906	1931.61
680.104	2508.93
680.301	2274.85
680.498	1805.86
680.695	1848.05
680.892	2102
681.089	2130.67
681.286	2069.44
681.483	1769.21
681.68	2327.48
681.877	2440.33
682.075	2014.14
682.272	2161.19
682.469	2395.47
682.665	2213.62
682.862	1884.51
683.059	1757.12
683.256	2348.78
683.453	2305.98
683.65	2100.57
683.847	2091.56
684.044	2330.14
684.241	2091.35
684.438	2111.83
684.635	1857.06
684.831	2758.78
685.028	2795.03
685.225	1956.19
685.422	2290.41
685.619	2336.29
685.815	2278.13
686.012	2123.5
686.209	2073.53
686.405	2103.64
686.602	2502.58
686.799	1906.83
686.996	1979.94
687.192	2179.82
687.389	2903.78
687.586	2009.43
687.782	2064.93
687.979	2813.26
688.175	2621.37
688.372	2099.54
688.568	2131.7
688.765	2278.13
688.962	2674
689.158	2250.48
689.355	1899.05
689.551	2523.88
689.748	2288.57
689.944	2177.98
690.14	2018.03
690.337	2627.51
690.533	2369.06
690.73	2353.7
690.926	2152.18
691.123	2519.79
691.319	2389.33
691.515	1999.19
691.712	2299.22
691.908	2535.35
692.104	2482.31
692.301	2302.09
692.497	2001.65
692.693	2630.99
692.889	2515.69
693.086	2323.8
693.282	1956.6
693.478	2443.4
693.674	2857.7
693.87	2159.14
694.067	2010.87
694.263	2484.97
694.459	2351.65
694.655	2365.37
694.851	2248.64
695.047	2581.84
695.243	2601.91
695.439	2295.12
695.635	2161.6
695.831	2513.85
696.027	2374.18
696.224	2105.48
696.42	2555.22
696.615	2777.42
696.811	2624.03
697.007	1994.28
697.203	2082.34
697.399	2526.34
697.595	2627.3
697.791	2050.8
697.987	2290.62
698.183	2170.81
698.379	2282.84
698.575	2151.56
698.77	2223.86
698.966	2577.33
699.162	2746.09
699.358	2155.86
699.554	2188.22
699.749	2638.16
699.945	2588.19
700.141	2288.78
700.337	2254.78
700.532	2377.66
700.728	2236.55
700.924	2043.63
701.119	1975.64
701.315	2596.79
701.511	2381.96
701.706	2221.81
701.902	1927.51
702.097	2455.28
702.293	2507.5
702.489	2161.8
702.684	2104.66
702.88	2454.87
703.075	2345.71
703.271	2163.03
703.466	1973.8
703.662	2341
703.857	2459.37
704.053	2060.43
704.248	2167.13
704.443	2669.08
704.639	2597.61
704.834	2224.47
705.03	2092.99
705.225	2546.82
705.42	2695.5
705.616	2299.02
705.811	2051.01
706.006	2319.9
706.202	2281.81
706.397	2245.97
706.592	1992.03
706.787	2551.94
706.983	2344.89
707.178	2396.09
707.373	2179.41
707.568	2584.5
707.763	2685.26
707.959	2062.07
708.154	2116.75
708.349	2459.37
708.544	2565.66
708.739	2400.8
708.934	2037.49
709.129	2605.19
709.324	2706.97
709.519	2071.69
709.714	1971.95
709.909	2627.1
710.104	2380.93
710.299	2083.57
710.494	2160.57
710.689	2540.68
710.884	2386.05
711.079	2214.64
711.274	2325.02
711.469	2600.27
711.664	2519.17
711.859	2108.96
712.054	2217.92
712.249	2559.11
712.443	2650.45
712.638	1989.16
712.833	2051.21
713.028	2362.09
713.223	2379.09
713.417	2405.92
713.612	2085.41
713.807	2629.15
714.002	3107.35
714.196	2330.14
714.391	2074.56
714.586	2575.49
714.78	2414.93
714.975	2113.47
715.17	2081.11
715.364	2347.55
715.559	2639.59
715.754	1778.83
715.948	2002.06
716.143	2909.31
716.337	2439.92
716.532	2396.91
716.726	2077.02
716.921	2557.26
717.115	2828.83
717.31	1907.03
717.504	2774.96
717.699	2335.06
717.893	2572.01
718.088	1992.43
718.282	1915.64
718.476	2474.53
718.671	2556.24
718.865	2077.22
719.059	2022.95
719.254	2333.63
719.448	2743.22
719.642	3751.03
719.837	1842.11
720.031	2582.45
720.225	2632.42
720.419	2145.42
720.614	2001.04
720.808	2539.45
721.002	2391.79
721.196	2023.97
721.39	2103.23
721.585	2671.54
721.779	2566.48
721.973	2153.41
722.167	1896.59
722.361	2421.28
722.555	2713.32
722.749	2133.74
722.943	2088.69
723.137	2126.99
723.331	2500.33
723.525	2124.94
723.719	2127.81
723.913	2562.18
724.107	2769.02
724.301	1977.07
724.495	2116.34
724.689	2877.77
724.883	2683.83
725.077	2013.32
725.271	2030.94
725.465	2690.79
725.659	2348.17
725.853	2179.62
726.046	1870.17
726.24	2240.03
726.434	2625.46
726.628	2039.54
726.822	2106.1
727.015	2658.64
727.209	2810.39
727.403	2119.61
727.596	1889.63
727.79	2564.84
727.984	2612.76
728.177	2066.57
728.371	2144.39
728.565	2611.95
728.758	2106.71
728.952	1972.16
729.146	1982.81
729.339	2641.23
729.533	2341.41
729.726	2085
729.92	1936.73
730.113	2695.5
730.307	2443.4
730.5	2131.9
730.694	1993.05
730.887	2301.27
731.081	2490.5
731.274	2000.63
731.468	2131.29
731.661	2331.78
731.854	2193.95
732.048	2007.18
732.241	1972.77
732.435	2248.43
732.628	2337.11
732.821	2142.14
733.014	1949.84
733.208	2142.76
733.401	2467.15
733.594	2023.15
733.788	2002.88
733.981	2664.58
734.174	2521.63
734.367	2021.72
734.56	2179.82
734.754	2630.38
734.947	2372.74
735.14	1978.3
735.333	2113.26
735.526	2616.45
735.719	2199.89
735.912	1977.89
736.105	1988.13
736.298	2405.1
736.491	2275.87
736.684	1981.99
736.877	1959.87
737.07	2492.14
737.263	2713.93
737.456	2041.59
737.649	1892.9
737.842	2242.29
738.035	2414.93
738.228	2111.63
738.421	2207.88
738.614	2637.34
738.807	2534.94
739	1864.03
739.192	1977.89
739.385	2479.65
739.578	2475.96
739.771	2355.54
739.964	1975.64
740.156	2481.9
740.349	2358.61
740.542	2272.39
740.735	1865.26
740.927	2033.19
741.12	2085
741.313	1872.01
741.505	2206.86
741.698	2468.79
741.891	2480.88
742.083	2201.12
742.276	1972.77
742.468	2399.57
742.661	2316.22
742.854	2022.13
743.046	1984.45
743.239	2620.34
743.431	2325.02
743.624	2032.57
743.816	1795.01
744.009	2256.21
744.201	2414.73
744.393	2231.02
744.586	1865.05
744.778	2530.44
744.971	2319.09
745.163	2042.61
745.355	2117.16
745.548	2321.75
745.74	2283.25
745.932	2051.62
746.125	1949.22
746.317	2820.02
746.509	2376.63
746.702	1987.52
746.894	2049.98
747.086	2461.83
747.278	2582.66
747.471	2184.53
747.663	2051.62
747.855	2328.51
748.047	2743.02
748.239	1945.54
748.431	1953.11
748.623	2740.76
748.815	2627.92
749.008	1841.7
749.2	1887.37
749.392	2415.95
749.584	2457.94
749.776	2047.12
749.968	2146.24
750.16	2722.74
750.352	2216.07
750.544	2021.72
750.736	1851.33
750.928	2388.72
751.12	2307.21
751.311	1984.24
751.503	1999.6
751.695	2358.61
751.887	2311.51
752.079	1754.46
752.271	1917.07
752.463	2963.99
752.654	2435.41
752.846	1975.85
753.038	1948.81
753.23	2142.76
753.421	2394.45
753.613	1983.22
753.805	2191.09
753.997	2441.96
754.188	2499.31
754.38	1878.16
754.572	1935.5
754.763	2169.17
754.955	2338.75
755.146	2009.23
755.338	1957.41
755.53	2389.13
755.721	2244.13
755.913	1716.78
756.104	1844.37
756.296	2166.51
756.487	2465.11
756.679	1782.72
756.87	1870.38
757.062	2103.64
757.253	2343.05
757.445	1833.51
757.636	2023.97
757.827	2241.06
758.019	2835.99
758.21	1771.87
758.401	1888.6
758.593	2763.9
758.784	2538.22
758.975	1751.18
759.167	1750.98
759.358	2196.41
759.549	2480.47
759.74	1872.42
759.932	1835.15
760.123	2452.2
760.314	2114.7
760.505	1976.46
760.696	1802.59
760.888	2532.07
761.079	2098.11
761.27	1773.71
761.461	1637.32
761.652	2506.47
761.843	2124.53
762.034	1901.1
762.225	2208.5
762.416	2145.83
762.607	2142.76
762.798	1789.07
762.989	1836.79
763.18	3298.01
763.371	2105.28
763.562	1801.77
763.753	1867.92
763.944	2321.75
764.135	2353.7
764.326	2051.01
764.517	1806.27
764.708	2266.66
764.899	2291.85
765.089	1746.27
765.28	1621.55
765.471	2071.08
765.662	2277.51
765.853	1832.69
766.043	1649.81
766.234	2310.48
766.425	2351.24
766.615	1830.44
766.806	1594.72
766.997	2382.37
767.187	2206.65
767.378	1742.17
767.569	1595.54
767.759	2213.21
767.95	2063.91
768.141	1930.38
768.331	1694.25
768.522	2169.58
768.712	2229.59
768.903	1665.78
769.093	1711.66
769.284	2403.05
769.474	2138.25
769.665	1573.42
769.855	1505.84
770.046	2301.06
770.236	2019.06
770.426	1954.55
770.617	1643.67
770.807	2161.8
770.998	2031.35
771.188	1907.65
771.378	1673.98
771.569	2276.28
771.759	2193.55
771.949	1543.11
772.139	1417.98
772.33	2085.21
772.52	2221.6
772.71	1611.72
772.9	1507.48
773.09	2395.47
773.281	2486.81
773.471	1672.75
773.661	1637.52
773.851	2223.04
774.041	1951.48
774.231	1593.7
774.421	1899.46
774.611	2369.06
774.802	2016.6
774.992	1762.45
775.182	1518.53
775.372	2103.02
775.562	2266.04
775.752	1657.39
775.942	1701.62
776.131	2314.17
776.321	2171.22
776.511	1574.03
776.701	1563.59
776.891	2302.7
777.081	1743.2
777.271	1713.91
777.461	1566.25
777.651	2143.57
777.84	2198.05
778.03	1787.84
778.22	1607.42
778.41	2209.72
778.599	1788.66
778.789	1716.57
778.979	1540.65
779.169	2067.6
779.358	1915.43
779.548	1917.68
779.738	1445.01
779.927	2064.11
780.117	1736.64
780.307	1617.25
780.496	1304.73
780.686	2067.8
780.875	2432.54
781.065	1562.57
781.254	1558.27
781.444	1967.86
781.633	1965.2
781.823	1497.24
782.012	1525.09
782.202	1848.26
782.391	1893.52
782.581	1475.12
782.77	1800.95
782.96	2137.84
783.149	1850.51
783.338	1555.6
783.528	1321.93
783.717	2163.64
783.906	2235.94
784.096	1696.71
784.285	1441.74
784.474	1829.01
784.663	1714.53
784.853	1543.72
785.042	1661.89
785.231	1818.97
785.42	2090.74
785.61	1666.81
785.799	1455.25
785.988	2020.7
786.177	1803.82
786.366	1580.38
786.555	1769.41
786.744	2053.87
786.933	1879.39
787.122	1377.02
787.312	1352.85
787.501	1698.76
787.69	2022.13
787.879	1493.96
788.068	1451.98
788.257	1574.24
788.445	1735.62
788.634	1527.96
788.823	1354.49
789.012	2409.81
789.201	2224.26
789.39	1577.93
789.579	1404.26
789.768	1866.07
789.957	1839.86
790.145	1443.78
790.334	1180.21
790.523	1704.08
790.712	1778.42
790.9	1547.41
791.089	1296.13
791.278	1996.33
791.467	1866.89
791.655	1834.95
791.844	2039.95
792.033	1668.86
792.221	1832.08
792.41	1523.65
792.599	1258.44
792.787	1993.66
792.976	2006.36
793.164	1325.41
793.353	1413.68
793.541	1959.87
793.73	1939.39
793.918	1505.43
794.107	1450.75
794.295	1787.23
794.484	1771.87
794.672	1465.7
794.861	1446.86
795.049	1922.39
795.238	2248.43
795.426	1275.85
795.614	1462.22
795.803	1929.97
795.991	2143.98
796.179	1407.94
796.368	1389.31
796.556	2085.82
796.744	1561.95
796.932	1358.59
797.121	1345.28
797.309	1723.54
797.497	1965.81
797.685	1425.97
797.874	1329.1
798.062	1717.39
798.25	2098.93
798.438	1276.26
798.626	1402.82
798.814	1909.9
799.002	2245.77
799.19	1556.63
799.378	1442.56
799.566	2027.66
799.755	2121.66
799.943	1618.48
800.131	1376.61
800.318	1787.23
800.506	1881.23
800.694	1365.96
800.882	1558.47
801.07	2113.88
801.258	1767.98
801.446	1388.69
801.634	1465.7
801.822	1760.6
802.01	1772.07
802.197	1367.8
802.385	1559.49
802.573	1865.05
802.761	1553.96
802.949	1477.17
803.136	1236.32
803.324	1965.4
803.512	1891.06
803.699	1522.63
803.887	1194.14
804.075	2053.87
804.262	1659.64
804.45	1285.68
804.638	1558.06
804.825	1511.37
805.013	1611.31
805.201	1377.84
805.388	1328.07
805.576	1686.67
805.763	2150.74
805.951	1416.34
806.138	1490.68
806.326	2202.35
806.513	1900.28
806.701	1412.65
806.888	1384.19
807.075	1889.83
807.263	2181.05
807.45	1285.27
807.638	1550.48
807.825	2232.25
808.012	1995.92
808.2	1521.2
808.387	1743.2
808.574	1886.96
808.761	2140.71
808.949	1334.01
809.136	1471.23
809.323	1711.86
809.51	1782.11
809.698	1775.15
809.885	1597.18
810.072	1871.6
810.259	2058.17
810.446	1531.23
810.633	1381.32
810.82	2060.84
811.008	2175.93
811.195	1650.63
811.382	1487.61
811.569	1814.47
811.756	1486.38
811.943	1510.14
812.13	1376.2
812.317	1662.51
812.504	1643.46
812.691	1531.23
812.878	1556.63
813.064	2123.71
813.251	1808.73
813.438	1372.1
813.625	1621.34
813.812	1753.64
813.999	1761.22
814.186	1557.24
814.372	1485.15
814.559	1846
814.746	2187.61
814.933	1396.27
815.12	1643.05
815.306	1682.17
815.493	1510.34
815.68	1408.97
815.866	1470.41
816.053	2057.76
816.24	2235.53
816.426	1519.56
816.613	1299.2
816.799	1918.5
816.986	2070.05
817.173	1404.67
817.359	1379.27
817.546	1879.18
817.732	1470.2
817.919	1163.83
818.105	1556.42
818.292	1665.17
818.478	1881.43
818.665	1634.65
818.851	1378.25
819.037	2380.93
819.224	1775.35
819.41	1271.14
819.597	1321.32
819.783	2293.9
819.969	1871.19
820.156	1440.92
820.342	1271.14
820.528	2695.09
820.714	1664.76
820.901	1690.36
821.087	1513.82
821.273	2110.6
821.459	1663.53
821.646	1266.63
821.832	1255.37
822.018	1789.89
822.204	1745.24
822.39	1397.09
822.576	1287.93
822.762	1890.24
822.948	1849.69
823.134	1573.42
823.32	1374.36
823.507	1450.75
823.693	1844.78
823.879	1868.74
824.065	1316.2
824.25	1716.57
824.436	1491.71
824.622	1344.66
824.808	1259.47
824.994	1635.06
825.18	1520.38
825.366	1211.75
825.552	1314.15
825.738	1645.71
825.923	1975.85
826.109	1601.89
826.295	1304.73
826.481	1586.12
826.667	1607.83
826.852	1566.05
827.038	1214.62
827.224	1987.93
827.409	2067.39
827.595	1175.3
827.781	1564.61
827.966	1962.12
828.152	1932.22
828.338	1375.38
828.523	1145.6
828.709	1563.39
828.894	1938.37
829.08	1344.05
829.266	1237.14
829.451	1692.82
829.637	1849.08
829.822	1432.11
830.008	1296.94
830.193	1951.68
830.378	2092.99
830.564	1386.44
830.749	1202.94
830.935	1765.72
831.12	1764.29
831.305	1403.03
831.491	1383.98
831.676	1364.53
831.861	1827.16
832.047	1318.45
832.232	1158.5
832.417	1928.33
832.602	1723.95
832.788	1247.59
832.973	1203.76
833.158	1667.63
833.343	1636.09
833.528	1413.88
833.714	1374.77
833.899	1717.19
834.084	2169.58
834.269	1495.19
834.454	1287.11
834.639	1833.72
834.824	1655.75
835.009	1432.11
835.194	1484.54
835.379	1856.86
835.564	2086.23
835.749	1506.04
835.934	1130.24
836.119	1844.98
836.304	1689.13
836.489	1217.07
836.674	1576.9
836.859	1398.73
837.044	1975.44
837.228	1300.02
837.413	1216.46
837.598	1701.42
837.783	1838.43
837.968	1271.34
838.152	1136.18
838.337	1169.56
838.522	2025.2
838.707	1811.8
838.891	1485.77
839.076	1712.68
839.261	1827.37
839.445	1363.3
839.63	1392.79
839.815	2046.3
839.999	1535.12
840.184	1208.47
840.368	1221.58
840.553	1833.31
840.737	1738.28
840.922	1107.92
841.106	1105.05
841.291	1296.33
841.475	1661.89
841.66	1198.64
841.844	1170.58
842.029	2307.41
842.213	1300.43
842.397	1232.43
842.582	1012.89
842.766	1802.59
842.951	1783.13
843.135	1226.49
843.319	1242.47
843.504	1662.1
843.688	1880
843.872	980.33
844.056	1121.64
844.241	1699.37
844.425	1491.3
844.609	1424.94
844.793	988.32
844.977	1808.53
845.161	1653.5
845.346	1049.14
845.53	1142.12
845.714	1506.86
845.898	1940.62
846.082	959.85
846.266	1151.13
846.45	1530.82
846.634	1611.1
846.818	1121.02
847.002	1315.58
847.186	1693.84
847.37	1228.75
847.554	1055.49
847.738	1336.27
847.922	1597.38
848.106	1573.01
848.29	1013.51
848.473	1123.07
848.657	1699.58
848.841	1390.54
849.025	1125.53
849.209	948.18
849.392	1652.88
849.576	1368.83
849.76	875.06
849.944	1286.91
850.127	1831.67
850.311	1203.35
850.495	976.44
850.678	933.84
850.862	1742.79
851.046	1839.45
851.229	1413.06
851.413	986.68
851.596	1564.61
851.78	1390.13
851.964	1275.44
852.147	1164.65
852.331	2213.82
852.514	1834.74
852.698	1189.84
852.881	946.54
853.065	1626.26
853.248	1453.2
853.431	1251.07
853.615	1133.11
853.798	2126.99
853.982	1575.67
854.165	1276.87
854.348	1076.58
854.532	1131.88
854.715	1303.91
854.898	1081.91
855.081	1063.07
855.265	1763.27
855.448	1958.23
855.631	985.45
855.814	1055.28
855.997	1608.85
856.181	1426.79
856.364	1169.56
856.547	866.67
856.73	1557.24
856.913	1485.36
857.096	921.14
857.279	1151.95
857.462	1290.6
857.645	1637.32
857.828	1201.3
858.011	1227.11
858.194	1275.24
858.377	1512.8
858.56	924.83
858.743	1059.99
858.926	1187.17
859.109	1514.23
859.292	974.59
859.475	868.3
859.658	1631.58
859.841	1544.75
860.023	907.63
860.206	885.71
860.389	1441.94
860.572	1656.16
860.755	1049.14
860.937	1053.85
861.12	1315.79
861.303	1385.62
861.486	1101.77
861.668	1042.59
861.851	1409.58
862.034	1474.71
862.216	1181.44
862.399	835.95
862.581	1511.78
862.764	1710.84
862.947	1087.44
863.129	905.17
863.312	1067.37
863.494	1689.13
863.677	1350.19
863.859	739.28
864.042	1567.69
864.224	1539.22
864.406	1134.75
864.589	746.66
864.771	1408.56
864.954	1128.4
865.136	943.67
865.318	739.28
865.501	1621.75
865.683	886.53
865.865	968.25
866.048	917.05
866.23	1493.55
866.412	1282.81
866.594	826.12
866.777	1023.75
866.959	1431.29
867.141	1135.15
867.323	1240.63
867.505	1105.46
867.687	1283.84
867.869	1320.7
868.052	968.45
868.234	854.79
868.416	1306.77
868.598	1508.91
868.78	971.93
868.962	805.64
869.144	1556.63
869.326	1440.3
869.508	914.79
869.69	816.08
869.872	1118.57
870.054	1608.03
870.236	703.65
870.417	831.24
870.599	1209.29
870.781	1740.33
870.963	1112.01
871.145	854.58
871.327	1035.42
871.508	1521.61
871.69	960.87
871.872	935.48
872.054	1235.92
872.235	1403.44
872.417	1020.47
872.599	780.04
872.78	1764.7
872.962	1270.94
873.144	734.57
873.325	932.61
873.507	1651.65
873.689	1269.91
873.87	816.29
874.052	1027.23
874.233	1248.2
874.415	1645.3
874.596	954.93
874.778	798.06
874.959	1349.37
875.141	1579.36
875.322	928.51
875.503	830.42
875.685	1359.41
875.866	849.87
876.048	818.33
876.229	797.04
876.41	1235.3
876.592	1398.32
876.773	919.09
876.954	746.45
877.136	1685.85
877.317	1158.5
877.498	736.21
877.679	1030.71
877.86	1408.97
878.042	1261.92
878.223	909.47
878.404	1332.78
878.585	1479.83
878.766	1766.54
878.947	1238.78
879.128	1117.13
879.309	1457.91
879.49	1617.45
879.672	1045.86
879.853	968.04
880.034	1063.07
880.215	1270.73
880.396	1016.37
880.576	890.63
880.757	1104.23
880.938	1695.68
881.119	852.94
881.3	875.68
881.481	1104.44
881.662	2163.03
881.843	785.16
882.023	777.37
882.204	1419.21
882.385	1283.43
882.566	860.32
882.747	851.1
882.927	1254.14
883.108	1364.12
883.289	850.69
883.469	1125.73
883.65	1208.68
883.831	1320.5
884.011	1154.82
884.192	903.73
884.373	1531.44
884.553	1376.41
884.734	1063.48
884.914	1308.62
885.095	2197.85
885.275	1665.58
885.456	1252.09
885.636	787.21
885.817	1255.17
885.997	1326.03
886.178	818.33
886.358	993.85
886.538	1320.7
886.719	2476.78
886.899	907.42
887.08	976.03
887.26	1562.77
887.44	1053.85
887.621	816.08
887.801	1039.31
887.981	1803
888.161	1549.25
888.342	990.77
888.522	990.16
888.702	1534.51
888.882	1665.99
889.062	1065.32
889.242	694.84
889.423	1714.73
889.603	1477.58
889.783	1061.22
889.963	915.2
890.143	1443.17
890.323	1610.9
890.503	951.45
890.683	968.25
890.863	1350.81
891.043	1323.98
891.223	1054.26
891.403	1178.78
891.583	1349.78
891.763	1425.97
891.943	1038.9
892.122	957.39
892.302	1332.17
892.482	1289.16
892.662	1161.16
892.842	1043.82
893.022	1396.07
893.201	1226.9
893.381	1154.61
893.561	934.45
893.741	1551.71
893.92	1355.11
894.1	1122.46
894.28	1074.74
894.459	1568.91
894.639	1403.64
894.819	948.99
894.998	1083.55
895.178	1419.82
895.357	1384.6
895.537	936.91
895.716	753.41
895.896	1299.2
896.075	1730.5
896.255	992.82
896.434	721.47
896.614	1647.35
896.793	1607.83
896.973	1170.18
897.152	1100.54
897.331	1340.16
897.511	1474.09
897.69	760.99
897.87	1075.97
898.049	1413.47
898.228	1319.88
898.407	1158.3
898.587	1116.93
898.766	1105.87
898.945	1499.69
899.124	1328.48
899.304	1018.83
899.483	1510.55
899.662	1760.4
899.841	940.6
900.02	918.68
900.199	1557.04
900.378	1413.06
900.557	900.46
900.737	828.16
900.916	1366.99
901.095	1432.72
901.274	1249.43
901.453	830.62
901.632	1075.76
901.811	1101.77
901.989	910.08
902.168	865.64
902.347	1512.8
902.526	1161.16
902.705	947.77
902.884	1077.2
903.063	1682.99
903.242	1605.37
903.42	885.92
903.599	1119.59
903.778	1495.19
903.957	1727.63
904.135	1096.24
904.314	1013.3
904.493	1352.03
904.672	1331.15
904.85	998.15
905.029	950.43
905.207	1379.89
905.386	1959.67
905.565	765.7
905.743	894.11
905.922	1237.76
906.1	1418.18
906.279	793.96
906.457	878.34
906.636	1139.87
906.814	1156.66
906.993	921.14
907.171	802.97
907.35	1419
907.528	1542.7
907.707	1197.21
907.885	756.08
908.063	1580.79
908.242	1047.3
908.42	861.34
908.598	671.9
908.777	1421.87
908.955	1071.05
909.133	1050.16
909.311	767.13
909.49	1135.15
909.668	1167.92
909.846	857.25
910.024	639.96
910.202	1191.06
910.38	1347.12
910.559	716.35
910.737	794.99
910.915	1266.63
911.093	1275.65
911.271	854.79
911.449	990.57
911.627	1320.5
911.805	1766.54
911.983	870.56
912.161	764.06
912.339	1197.21
912.517	1500.92
912.695	996.51
912.872	887.35
913.05	978.89
913.228	1305.14
913.406	857.66
913.584	754.85
913.762	1407.53
913.939	1039.72
914.117	797.04
914.295	728.22
914.473	1191.27
914.65	1298.99
914.828	797.24
915.006	719.62
915.184	854.58
915.361	1265.2
915.539	962.92
915.716	1035.62
915.894	1228.54
916.072	1328.69
916.249	1220.56
916.427	973.16
916.604	881.21
916.782	1370.67
916.959	705.29
917.137	784.13
917.314	1197.41
917.492	1217.07
917.669	928.72
917.847	875.68
918.024	1179.19
918.201	918.48
918.379	861.14
918.556	835.54
918.733	1288.14
918.911	986.68
919.088	999.78
919.265	761.81
919.442	1179.39
919.62	1129.42
919.797	718.39
919.974	629.72
920.151	1231
920.328	1106.07
920.506	690.34
920.683	1338.31
920.86	869.74
921.037	918.48
921.214	841.68
921.391	668.42
921.568	1264.79
921.745	912.95
921.922	813.01
922.099	702.21
922.276	1260.08
922.453	1120.61
922.63	665.76
922.807	1092.35
922.984	1092.56
923.161	935.48
923.338	802.36
923.514	647.74
923.691	1119.8
923.868	1215.03
924.045	699.55
924.222	581.18
924.399	1082.52
924.575	1236.32
924.752	798.06
924.929	803.38
925.105	1096.45
925.282	789.66
925.459	782.7
925.635	732.73
925.812	1063.48
925.989	841.27
926.165	847.21
926.342	509.91
926.518	810.35
926.695	942.24
926.871	666.99
927.048	576.47
927.224	1234.28
927.401	889.19
927.577	802.36
927.754	496.6
927.93	1231.82
928.107	1201.71
928.283	586.71
928.459	775.12
928.636	1151.54
928.812	898.41
928.988	593.47
929.165	471.61
929.341	924.62
929.517	1030.3
929.693	1034.39
929.87	413.66
930.046	1108.94
930.222	854.38
930.398	575.85
930.574	743.99
930.751	891.65
930.927	848.44
931.103	633.4
931.279	707.74
931.455	748.5
931.631	1024.97
931.807	447.86
931.983	465.88
932.159	586.09
932.335	964.97
932.511	613.54
932.687	606.16
932.863	935.27
933.039	964.15
933.215	497.42
933.391	457.28
933.566	865.85
933.742	956.98
933.918	591.21
934.094	408.33
934.27	932.61
934.445	928.92
934.621	745.84
934.797	539.4
934.973	1057.33
935.148	909.26
935.324	494.14
935.5	340.13
935.675	1134.95
935.851	951.25
936.027	671.9
936.202	619.89
936.378	1038.7
936.553	845.37
936.729	1128.19
936.904	526.91
937.08	670.47
937.255	726.79
937.431	567.05
937.606	434.75
937.782	762.83
937.957	970.5
938.133	647.74
938.308	490.86
938.483	883.66
938.659	639.55
938.834	702.42
939.009	447.04
939.185	882.85
939.36	651.42
939.535	228.72
939.71	677.43
939.886	1125.32
940.061	938.55
940.236	865.03
940.411	575.65
940.586	967.84
940.761	1005.31
940.937	692.79
941.112	450.11
941.287	852.13
941.462	827.55
941.637	390.51
941.812	585.89
941.987	859.7
942.162	772.66
942.337	637.29
942.512	495.37
942.687	1114.68
942.862	978.89
943.037	333.78
943.212	236.51
943.386	692.59
943.561	815.47
943.736	693.61
943.911	885.51
944.086	984.63
944.26	857.25
944.435	507.04
944.61	621.73
944.785	1006.34
944.959	1257.01
945.134	541.86
945.309	394.4
945.483	573.19
945.658	968.86
945.833	179.57
946.007	279.31
946.182	1093.79
946.357	545.54
946.531	398.5
946.706	393.38
946.88	351.6
947.055	807.89
947.229	398.71
947.404	301.84
947.578	889.81
947.752	696.89
947.927	247.97
948.101	185.31
948.276	1035.62
948.45	776.15
948.624	640.57
948.799	341.36
948.973	761.4
949.147	416.32
949.321	426.35
949.496	431.27
949.67	1021.49
949.844	611.9
950.018	404.44
950.193	363.89
950.367	1202.94
950.541	598.38
950.715	476.94
950.889	553.74
951.063	615.38
951.237	829.8
951.411	145.99
951.585	194.11
951.759	772.05
951.933	661.46
952.107	296.51
952.281	502.13
952.455	984.63
952.629	805.02
952.803	291.39
952.977	284.43
953.151	850.9
953.325	631.97
953.499	495.16
953.672	166.26
953.846	388.67
954.02	548.82
954.194	260.88
954.368	260.06
954.541	823.45
954.715	489.02
954.889	402.8
955.062	219.92
955.236	503.77
955.41	519.13
955.583	446.63
955.757	92.74
955.93	534.49
956.104	303.07
956.278	262.11
956.451	303.88
956.625	725.36
956.798	989.34
956.972	552.51
957.145	168.51
957.319	669.24
957.492	584.25
957.665	466.08
957.839	195.96
958.012	679.07
958.185	424.92
958.359	288.52
958.532	501.1
958.705	669.65
958.879	597.77
959.052	371.47
959.225	84.96
959.398	519.54
959.572	642.21
959.745	183.46
959.918	258.42
960.091	479.19
960.264	715.94
960.438	149.67
960.611	133.29
960.784	785.16
960.957	393.38
961.13	683.78
961.303	149.88
961.476	548.21
961.649	880.39
961.822	143.73
961.995	345.87
962.168	545.95
962.341	603.91
962.514	229.34
962.686	187.56
962.859	548
963.032	673.34
963.205	226.68
963.378	-1.06
963.551	572.78
963.723	452.57
963.896	341.77
964.069	378.64
964.242	491.07
964.414	830.21
964.587	246.75
964.76	340.54
964.932	566.23
965.105	471.61
965.278	177.93
965.45	143.53
965.623	554.56
965.795	648.56
965.968	222.58
966.14	167.49
966.313	452.16
966.485	519.33
966.658	153.15
966.83	97.86
967.003	699.55
967.175	638.73
967.348	151.11
967.52	209.06
967.692	881.21
967.865	684.6
968.037	198
968.209	492.5
968.382	519.33
968.554	692.18
968.726	221.76
968.898	120.59
969.071	615.18
969.243	596.13
969.415	205.79
969.587	311.26
969.759	897.59
969.932	594.49
970.104	221.76
970.276	-111.65
970.448	342.18
970.62	385.6
970.792	299.99
970.964	219.51
971.136	899.43
971.308	579.13
971.48	87.21
971.652	144.14
971.824	801.75
971.996	366.96
972.168	188.58
972.339	234.46
972.511	622.75
972.683	475.71
972.855	443.56
973.027	129.81
973.199	522.61
973.37	657.57
973.542	305.73
973.714	406.9
973.886	393.18
974.057	654.29
974.229	138.2
974.401	98.06
974.572	264.77
974.744	98.88
974.915	25.36
975.087	73.08
975.259	816.7
975.43	302.25
975.602	99.5
975.773	53.62
975.945	244.7
976.116	635.66
976.288	60.79
976.459	346.89
976.63	337.47
976.802	495.78
976.973	51.98
977.145	313.71
977.316	954.93
977.487	527.93
977.659	304.91
977.83	153.36
978.001	838.61
978.172	531.41
978.344	22.49
978.515	181.21
978.686	315.35
978.857	781.27
979.028	143.53
979.2	37.44
979.371	738.05
979.542	389.9
979.713	290.98
979.884	-259.51
980.055	270.71
980.226	366.14
980.397	76.56
980.568	3.04
980.739	644.05
980.91	302.86
981.081	282.59
981.252	93.15
981.423	437.41
981.594	560.29
981.765	22.7
981.936	230.36
982.106	387.24
982.277	680.71
982.448	47.07
982.619	301.84
982.79	249.61
982.96	561.31
983.131	228.52
983.302	-150.97
983.472	314.12
983.643	460.35
983.814	225.24
983.984	63.86
984.155	336.86
984.326	591.62
984.496	226.68
984.667	101.95
984.837	174.86
985.008	731.5
985.178	424.3
985.349	90.49
985.519	354.67
985.69	168.92
985.86	88.64
986.031	-6.18
986.201	457.28
986.371	500.69
986.542	-45.5
986.712	-141.14
986.882	428.4
987.053	482.26
987.223	-39.76
987.393	287.71
987.563	217.26
987.734	545.54
987.904	449.9
988.074	-10.27
988.244	345.87
988.414	253.5
988.585	-1.47
988.755	192.27
988.925	331.12
989.095	739.28
989.265	-31.57
989.435	118.95
989.605	522.4
989.775	517.49
989.945	383.35
990.115	-82.16
990.285	318.63
990.455	401.57
990.625	156.23
990.795	-37.92
990.965	709.38
991.134	127.35
991.304	-43.66
991.474	-25.22
991.644	409.15
991.814	733.96
991.984	-139.3
992.153	-42.84
992.323	280.95
992.493	405.67
992.662	-192.75
992.832	218.69
993.002	307.37
993.171	453.59
993.341	-191.93
993.511	44.2
993.68	187.15
993.85	492.71
994.019	-147.08
994.189	-135.61
994.358	345.66
994.528	213.36
994.697	-313.78
994.867	-142.57
995.036	500.08
995.206	165.44
995.375	-118.82
995.544	141.48
995.714	468.54
995.883	230.57
996.052	198.41
996.222	-308.25
996.391	727.81
996.56	389.28
996.73	-133.97
996.899	-201.55
997.068	670.06
997.237	300.2
997.406	-120.25
997.576	-110.21
997.745	441.92
997.914	332.35
998.083	-316.65
998.252	-101
998.421	330.51
998.59	100.32
998.759	-152.2
998.928	-271.59
999.097	587.94
999.266	343.41
999.435	112.19
999.604	-305.8
999.773	715.53
999.942	218.89
1000.111	-321.97
1000.28	-287.98
1000.448	42.36
1000.617	29.05
1000.786	139.02
1000.955	-240.06
1001.124	418.57
1001.292	907.01
1001.461	-114.72
1001.63	-198.69
1001.798	545.95
1001.967	515.23
1002.136	-231.25
1002.304	-198.07
1002.473	300.61
1002.642	285.66
1002.81	-96.08
1002.979	-89.53
1003.147	483.7
1003.316	737.85
1003.484	-141.75
1003.653	-205.85
1003.821	491.27
1003.99	179.78
1004.158	52.6
1004.327	-19.29
1004.495	378.84
1004.663	129.4
1004.832	20.45
1005	-288.59
1005.168	391.13
1005.337	253.09
1005.505	-316.85
1005.673	73.08
1005.842	421.03
1006.01	298.76
1006.178	-264.22
1006.346	-198.48
1006.514	338.7
1006.683	637.7
1006.851	-163.67
1007.019	-22.15
1007.187	20.65
1007.355	-228.59
1007.523	-368.26
1007.691	-307.64
1007.859	-51.64
1008.027	589.99
1008.195	-192.34
1008.363	-303.54
1008.531	345.25
1008.699	152.74
1008.867	-363.34
1009.035	-217.32
1009.203	591.01
1009.37	200.46
1009.538	-153.84
1009.706	345.46
1009.874	235.69
1010.042	205.58
1010.209	-286.14
1010.377	-291.26
1010.545	425.53
1010.713	265.59
1010.88	-252.55
1011.048	-165.31
1011.216	159.09
1011.383	554.35
1011.551	-206.67
1011.718	-297.19
1011.886	451.95
1012.054	258.21
1012.221	-278.76
1012.389	-264.84
1012.556	165.85
1012.724	615.18
1012.891	-94.45
1013.058	-404.3
1013.226	367.58
1013.393	407.72
1013.561	-355.56
1013.728	-405.94
1013.895	477.76
1014.063	346.89
1014.23	-390.58
1014.397	-266.68
1014.565	423.28
1014.732	147.01
1014.899	-306.21
1015.066	-315.63
1015.233	273.16
1015.401	399.93
1015.568	-157.73
1015.735	-81.13
1015.902	297.33
1016.069	495.98
1016.236	-196.43
1016.403	-347.16
1016.57	-33.42
1016.737	521.99
1016.904	-195.41
1017.071	-309.48
1017.238	37.03
1017.405	356.31
1017.572	-188.04
1017.739	43.79
1017.906	425.74
1018.073	479.19
1018.24	-355.77
1018.407	-137.25
1018.573	408.95
1018.74	187.97
1018.907	-149.13
1019.074	-413.52
1019.241	425.74
1019.407	229.13
1019.574	-297.6
1019.741	-368.67
1019.907	362.66
1020.074	603.09
1020.241	-483.35
1020.407	-366.83
1020.574	268.66
1020.74	274.6
1020.907	-261.76
1021.073	-306.82
1021.24	777.58
1021.406	482.88
1021.573	-367.64
1021.739	-286.34
1021.906	503.97
1022.072	180.39
1022.239	-224.9
1022.405	-196.84
1022.571	244.9
1022.738	48.5
1022.904	-261.56
1023.07	-138.68
1023.237	256.17
1023.403	488.2
1023.569	-240.26
1023.735	-226.74
1023.902	287.5
1024.068	305.73
1024.234	-384.64
1024.4	-277.12
1024.566	201.49
1024.732	352.01
1024.898	-247.84
1025.065	-434.82
1025.231	330.51
1025.397	88.03
1025.563	-228.59
1025.729	-356.38
1025.895	-246.4
1026.061	-7
1026.227	-461.85
1026.392	-228.59
1026.558	421.23
1026.724	329.69
1026.89	-308.87
1027.056	-153.63
1027.222	244.49
1027.388	106.26
1027.553	-214.05
1027.719	-351.26
1027.885	589.58
1028.051	305.11
1028.216	-505.27
1028.382	-230.02
1028.548	362.46
1028.713	120.8
1028.879	-398.16
1029.045	-93.22
1029.21	540.42
1029.376	432.91
1029.541	-214.25
1029.707	-242.51
1029.873	343.62
1030.038	440.28
1030.204	-263.2
1030.369	-261.35
1030.534	387.44
1030.7	117.11
1030.865	-188.86
1031.031	-375.63
1031.196	268.25
1031.361	243.26
1031.527	-319.31
1031.692	-306.21
1031.857	-182.71
1032.023	377.41
1032.188	-328.94
1032.353	-251.73
1032.518	511.96
1032.684	237.53
1032.849	-447.72
1033.014	-210.16
1033.179	282.79
1033.344	330.3
1033.509	-148.1
1033.674	-271.59
1033.839	346.48
1034.004	309.62
1034.17	-253.98
1034.335	-413.93
1034.5	102.16
1034.664	50.35
1034.829	-326.28
1034.994	-219.78
1035.159	181.21
1035.324	289.34
1035.489	-245.38
1035.654	-292.89
1035.819	608.62
1035.984	296.1
1036.148	-205.04
1036.313	-227.56
1036.478	437.62
1036.643	192.68
1036.807	-283.68
1036.972	-350.65
1037.137	600.64
1037.301	207.02
1037.466	-433.59
1037.631	-154.45
1037.795	398.3
1037.96	220.53
1038.124	-52.26
1038.289	-355.77
1038.454	317.81
1038.618	368.4
1038.783	-181.28
1038.947	-161.62
1039.111	179.16
1039.276	102.36
1039.44	-324.43
1039.605	276.85
1039.769	130.63
1039.933	159.3
1040.098	-199.1
1040.262	20.65
1040.426	427.38
1040.591	343.62
1040.755	-318.29
1040.919	-190.9
1041.083	394
1041.248	150.7
1041.412	-441.17
1041.576	-323.2
1041.74	104.62
1041.904	317.81
1042.068	-298.63
1042.232	-206.67
1042.397	472.43
1042.561	292.42
1042.725	-481.31
1042.889	-64.55
1043.053	347.3
1043.217	243.26
1043.381	-178
1043.544	-426.83
1043.708	411.81
1043.872	-19.69
1044.036	-495.44
1044.2	-392.22
1044.364	447.86
1044.528	527.11
1044.691	2873.68
1044.855	-373.79
1045.019	377.41
1045.183	341.16
1045.346	-193.36
1045.51	-362.93
1045.674	360
1045.837	336.45
1046.001	-248.66
1046.165	-257.87
1046.328	725.77
1046.492	258.62
1046.655	-56.35
1046.819	-182.71
1046.983	124.69
1047.146	225.45
1047.31	-166.74
1047.473	-459.8
1047.636	216.64
1047.8	-9.25
1047.963	-201.55
1048.127	-354.54
1048.29	28.84
