Data from USB4F045381__4__11-17-02-971.txt Node

Date: Wed Apr 24 11:17:02 EDT 2024
User: dsalmieri
Spectrometer: USB4F04538
Trigger mode: 4
Integration Time (sec): 1.000000E0
Scans to average: 10
Electric dark correction enabled: true
Nonlinearity correction enabled: false
Boxcar width: 0
XAxis mode: Wavelengths
Number of Pixels in Spectrum: 3648
>>>>>Begin Spectral Data<<<<<
345.52	-1111.09
345.736	-1111.09
345.952	-1111.09
346.168	-1111.3
346.384	-1109.45
346.6	-149.37
346.816	-248.28
347.032	-174.76
347.248	390.68
347.464	-258.73
347.68	-186.23
347.896	71.61
348.112	366.52
348.328	-84.44
348.544	-78.1
348.76	70.59
348.975	280.5
349.191	-258.32
349.407	-302.76
349.623	62.39
349.839	-13.99
350.055	-219.2
350.27	-13.38
350.486	160.08
350.702	285.62
350.918	244.87
351.133	-195.65
351.349	151.89
351.565	460.93
351.781	-302.76
351.996	-44.3
352.212	205.34
352.428	-92.64
352.644	-279.21
352.859	-273.68
353.075	283.37
353.291	106.63
353.506	-192.99
353.722	-331.02
353.938	-63.76
354.153	437.99
354.369	128.34
354.584	-281.25
354.8	265.55
355.016	-318.53
355.231	-333.89
355.447	-117.42
355.662	163.97
355.878	774.47
356.093	-416.01
356.309	-88.34
356.524	-238.86
356.74	264.94
356.955	-291.08
357.171	-122.54
357.386	172.58
357.602	-235.38
357.817	-148.75
358.033	-218.38
358.248	331.91
358.464	196.13
358.679	-219.61
358.895	-364.61
359.11	-17.27
359.325	237.91
359.541	226.64
359.756	-60.89
359.972	-301.53
360.187	268.22
360.402	-271.42
360.618	-212.24
360.833	1075.52
361.048	136.74
361.264	-227.19
361.479	-97.14
361.694	20.82
361.909	210.26
362.125	-256.27
362.34	-181.52
362.555	220.5
362.77	120.97
362.986	-336.96
363.201	-240.09
363.416	183.22
363.631	36.8
363.847	-257.7
364.062	-241.11
364.277	166.02
364.492	58.09
364.707	-219.2
364.922	-411.1
365.138	243.23
365.353	350.95
365.568	-345.77
365.783	-219.41
365.998	132.03
366.213	518.89
366.428	-318.53
366.643	41.92
366.858	269.03
367.073	217.22
367.288	-197.08
367.503	-297.64
367.718	86.36
367.933	346.65
368.148	-378.12
368.363	-124.99
368.578	22.05
368.793	417.72
369.008	-187.25
369.223	-314.84
369.438	241.8
369.653	321.26
369.868	-332.86
370.083	-315.25
370.298	142.06
370.513	419.36
370.728	-2.94
370.943	-259.96
371.157	-138.72
371.372	541.01
371.587	-379.76
371.802	-348.84
372.017	43.96
372.232	436.76
372.446	-83.83
372.661	-303.37
372.876	169.3
373.091	177.49
373.306	-169.84
373.52	-375.46
373.735	-114.55
373.95	470.55
374.165	-207.94
374.379	-191.35
374.594	-132.78
374.809	180.36
375.023	-4.78
375.238	-296
375.453	226.03
375.667	-239.68
375.882	-238.25
376.097	-282.48
376.311	27.78
376.526	39.05
376.741	-300.91
376.955	81.44
377.17	508.44
377.384	663.47
377.599	-105.74
377.813	-368.7
378.028	594.25
378.242	215.79
378.457	-154.89
378.672	-399.63
378.886	42.53
379.101	-36.73
379.315	-439.97
379.53	-221.25
379.744	266.17
379.958	205.96
380.173	-219.61
380.387	-295.39
380.602	198.18
380.816	-111.68
381.031	-230.46
381.245	-196.67
381.459	184.45
381.674	3127.59
381.888	-289.65
382.103	99.26
382.317	-166.36
382.531	419.15
382.746	-143.63
382.96	-262
383.174	-83.22
383.388	478.34
383.603	23.69
383.817	-371.98
384.031	109.7
384.246	456.63
384.46	-74
384.674	361.19
384.888	-19.52
385.103	69.77
385.317	-356.01
385.531	-81.99
385.745	424.27
385.959	300.57
386.174	-310.75
386.388	-290.68
386.602	17.54
386.816	-131.55
387.03	-146.91
387.244	-199.34
387.458	81.65
387.672	357.92
387.887	-362.97
388.101	-337.98
388.315	322.9
388.529	101.31
388.743	-257.29
388.957	-334.09
389.171	306.51
389.385	-214.7
389.599	-235.58
389.813	-4.57
390.027	202.68
390.241	634.6
390.455	-212.24
390.669	-164.32
390.883	-78.3
391.097	461.13
391.311	-17.68
391.525	-245.21
391.738	265.96
391.952	218.86
392.166	-88.95
392.38	-358.87
392.594	254.29
392.808	286.24
393.022	-159.2
393.236	-204.05
393.449	177.29
393.663	219.88
393.877	-345.97
394.091	-159.81
394.305	31.06
394.518	-121.72
394.732	-371.98
394.946	-200.36
395.16	486.12
395.373	108.68
395.587	-322.62
395.801	-257.91
396.015	290.74
396.228	203.09
396.442	-364.61
396.656	-446.12
396.869	303.85
397.083	478.13
397.297	-158.79
397.51	-227.8
397.724	302.83
397.938	160.9
398.151	-390
398.365	-376.08
398.578	244.66
398.792	394.17
399.005	-52.7
399.219	-241.52
399.433	162.54
399.646	228.08
399.86	-17.68
400.073	-21.78
400.287	210.05
400.5	6.08
400.714	-44.3
400.927	-171.48
401.141	249.17
401.354	1194.1
401.567	205.75
401.781	-366.04
401.994	198.99
402.208	587.7
402.421	-190.12
402.635	-224.12
402.848	-15.22
403.061	297.91
403.275	-120.9
403.488	-310.34
403.701	416.08
403.915	314.29
404.128	-31.4
404.341	-250.53
404.555	279.89
404.768	-48.2
404.981	-51.88
405.195	-251.97
405.408	417.1
405.621	209.85
405.834	-37.55
406.048	-325.7
406.261	388.84
406.474	386.79
406.687	-275.52
406.9	-96.94
407.114	116.05
407.327	220.5
407.54	-378.74
407.753	-392.05
407.966	-140.56
408.179	180.97
408.392	-280.44
408.605	-409.87
408.819	166.84
409.032	196.74
409.245	-251.76
409.458	-48.4
409.671	216.81
409.884	295.25
410.097	-372.39
410.31	-50.45
410.523	286.44
410.736	-18.09
410.949	-169.64
411.162	-187.25
411.375	348.7
411.588	245.28
411.801	-47.79
412.014	-227.39
412.227	36.59
412.44	-8.06
412.653	-220.22
412.865	-39.8
413.078	321.05
413.291	234.83
413.504	-114.75
413.717	-295.39
413.93	290.95
414.143	-125.61
414.356	-154.49
414.568	-407.2
414.781	291.15
414.994	138.37
415.207	-129.3
415.42	-153.46
415.632	246.51
415.845	554.93
416.058	-265.08
416.271	-356.01
416.483	94.55
416.696	483.05
416.909	-255.65
417.121	-283.1
417.334	136.74
417.547	447.41
417.759	-299.28
417.972	-308.49
418.185	-71.34
418.397	223.98
418.61	-250.53
418.823	-279.21
419.035	415.06
419.248	94.34
419.46	-168.21
419.673	-107.18
419.885	129.36
420.098	45.81
420.311	-227.39
420.523	-465.78
420.736	232.79
420.948	57.27
421.161	-234.77
421.373	-429.12
421.586	-36.93
421.798	-120.9
422.01	-418.26
422.223	-88.13
422.435	-74.61
422.648	308.77
422.86	-248.08
423.073	-219
423.285	231.15
423.497	-237.02
423.71	-288.22
423.922	-235.79
424.134	356.69
424.347	463.59
424.559	-34.27
424.771	88.2
424.984	17.75
425.196	238.32
425.408	-409.87
425.621	-334.71
425.833	309.38
426.045	400.92
426.257	-330.2
426.47	-190.12
426.682	103.97
426.894	171.14
427.106	-239.07
427.318	-180.08
427.531	-69.9
427.743	227.46
427.955	-187.87
428.167	288.08
428.379	175.03
428.591	27.37
428.804	-127.86
429.016	-281.87
429.228	-12.97
429.44	202.68
429.652	-9.69
429.864	-371.57
430.076	32.29
430.288	33.72
430.5	-206.5
430.712	-123.77
430.924	298.94
431.136	175.24
431.348	-369.93
431.56	-252.38
431.772	47.85
431.984	-53.93
432.196	-307.06
432.408	-252.38
432.62	19.8
432.832	192.65
433.044	80.42
433.256	-137.49
433.468	218.45
433.679	-242.55
433.891	-323.65
434.103	-14.4
434.315	297.91
434.527	235.86
434.739	-129.5
434.95	-216.54
435.162	253.88
435.374	-75.84
435.586	-167.8
435.798	-225.34
436.009	-144.65
436.221	-62.74
436.433	-214.49
436.645	-169.44
436.856	-13.58
437.068	340.1
437.28	-283.51
437.491	84.51
437.703	268.01
437.915	176.06
438.126	-190.32
438.338	92.09
438.55	33.72
438.761	158.85
438.973	-160.01
439.184	-196.67
439.396	82.06
439.608	305.28
439.819	-266.71
440.031	-106.56
440.242	289.51
440.454	285.62
440.665	-167.39
440.877	-78.3
441.088	249.37
441.3	88.2
441.511	-351.29
441.723	-220.84
441.934	195.72
442.146	162.13
442.357	-3.35
442.569	136.12
442.78	163.56
442.991	591.18
443.203	194.28
443.414	-228.21
443.626	581.76
443.837	-15.43
444.048	-266.1
444.26	-358.87
444.471	223.16
444.682	307.54
444.894	-303.78
445.105	-293.75
445.316	402.56
445.528	300.16
445.739	-50.04
445.95	-72.98
446.161	196.74
446.373	379.83
446.584	-120.08
446.795	-156.53
447.006	365.49
447.217	498.82
447.429	-309.52
447.64	-264.87
447.851	535.89
448.062	237.91
448.273	-297.23
448.484	-203.84
448.695	324.94
448.907	269.24
449.118	-49.01
449.329	127.93
449.54	54
449.751	-7.24
449.962	-146.09
450.173	-183.16
450.384	431.85
450.595	508.44
450.806	-150.18
451.017	-106.15
451.228	487.14
451.439	413.42
451.65	-134.21
451.861	-394.92
452.072	-18.7
452.283	170.73
452.494	32.9
452.705	-178.45
452.915	570.5
453.126	232.17
453.337	-80.14
453.548	-229.85
453.759	476.49
453.97	615.55
454.181	147.18
454.391	-139.94
454.602	256.13
454.813	357.71
455.024	-90.38
455.235	-214.49
455.445	339.08
455.656	275.18
455.867	13.04
456.078	-164.93
456.288	104.17
456.499	339.28
456.71	-237.22
456.921	84.1
457.131	223.57
457.342	209.64
457.553	-95.71
457.763	-183.77
457.974	266.58
458.184	329.86
458.395	-230.06
458.606	-246.64
458.816	449.46
459.027	613.5
459.237	-11.54
459.448	-318.53
459.659	445.98
459.869	780.82
460.08	-329.79
460.29	-56.39
460.501	581.15
460.711	81.03
460.922	-325.49
461.132	-219.2
461.343	817.07
461.553	-112.91
461.764	-228.21
461.974	-189.71
462.184	376.55
462.395	308.77
462.605	-113.73
462.816	-282.07
463.026	245.07
463.236	415.06
463.447	-235.38
463.657	-232.72
463.867	417.1
464.078	120.56
464.288	-141.17
464.498	-185.61
464.709	217.43
464.919	193.06
465.129	-123.77
465.339	-260.57
465.55	285.01
465.76	398.06
465.97	-146.29
466.18	-194.22
466.391	422.43
466.601	278.66
466.811	-96.12
467.021	-284.94
467.231	288.49
467.441	442.5
467.651	-131.14
467.862	-432.8
468.072	193.67
468.282	405.43
468.492	-228.42
468.702	-103.7
468.912	185.89
469.122	790.24
469.332	178.31
469.542	-225.96
469.752	458.06
469.962	231.35
470.172	-240.91
470.382	-230.26
470.592	423.25
470.802	402.97
471.012	-6.01
471.222	-201.59
471.432	370.61
471.642	424.68
471.852	-40
472.062	-196.88
472.272	155.37
472.482	-89.77
472.691	-215.31
472.901	-284.33
473.111	211.9
473.321	690.92
473.531	-234.77
473.741	-50.04
473.95	320.64
474.16	411.57
474.37	-23.21
474.58	-238.66
474.79	710.37
474.999	387.82
475.209	-200.36
475.419	-127.04
475.628	156.6
475.838	525.85
476.048	-50.86
476.258	-231.9
476.467	490.01
476.677	90.45
476.886	69.56
477.096	-33.25
477.306	79.39
477.515	543.46
477.725	-14.2
477.935	-26.69
478.144	598.55
478.354	108.06
478.563	-71.13
478.773	-160.22
478.982	398.26
479.192	511.92
479.401	-2.94
479.611	-143.22
479.82	14.47
480.03	343.79
480.239	-120.08
480.449	-210.19
480.658	628.66
480.868	112.37
481.077	26.56
481.287	-35.29
481.496	366.93
481.705	626.41
481.915	218.04
482.124	159.26
482.333	409.94
482.543	677.2
482.752	70.38
482.961	-99.19
483.171	492.47
483.38	271.49
483.589	1.77
483.799	-80.55
484.008	282.76
484.217	424.07
484.426	0.75
484.636	-134.42
484.845	557.8
485.054	0.34
485.263	285.83
485.472	-35.29
485.682	688.05
485.891	354.44
486.1	-146.91
486.309	-59.46
486.518	509.88
486.727	697.88
486.936	-90.59
487.146	149.43
487.355	709.76
487.564	93.32
487.773	36.59
487.982	-17.07
488.191	277.84
488.4	415.46
488.609	36.8
488.818	30.04
489.027	862.33
489.236	731.06
489.445	54.61
489.654	-24.64
489.863	640.74
490.072	373.69
490.281	426.73
490.49	78.37
490.698	757.48
490.907	801.92
491.116	65.47
491.325	-61.51
491.534	697.47
491.743	457.86
491.952	140.42
492.16	115.03
492.369	590.98
492.578	702.59
492.787	195.92
492.996	155.37
493.204	298.73
493.413	885.27
493.622	-68.06
493.831	-103.08
494.039	950.6
494.248	207.39
494.457	73.04
494.665	-46.97
494.874	634.8
495.083	1041.12
495.291	93.73
495.5	49.49
495.709	725.53
495.917	562.71
496.126	259.41
496.335	74.68
496.543	430.41
496.752	601.83
496.96	406.66
497.169	-11.74
497.377	488.37
497.586	728.39
497.794	271.08
498.003	-50.45
498.211	479.57
498.42	829.97
498.628	278.25
498.837	106.63
499.045	649.55
499.254	581.96
499.462	169.5
499.671	129.16
499.879	1067.33
500.087	861.72
500.296	116.26
500.504	220.91
500.713	643.61
500.921	1068.15
501.129	186.5
501.338	212.92
501.546	708.73
501.754	598.76
501.962	242.21
502.171	125.47
502.379	698.9
502.587	985.82
502.795	334.16
503.004	258.59
503.212	699.72
503.42	915.17
503.628	267.6
503.837	361.81
504.045	852.71
504.253	1058.73
504.461	253.06
504.669	120.56
504.877	802.33
505.085	996.27
505.294	127.32
505.502	514.59
505.71	743.34
505.918	812.77
506.126	178.92
506.334	292.59
506.542	657.74
506.75	784.3
506.958	473.42
507.166	378.81
507.374	572.34
507.582	1103.38
507.79	461.54
507.998	264.53
508.206	946.3
508.414	854.96
508.622	303.85
508.83	384.54
509.037	935.03
509.245	603.67
509.453	304.67
509.661	253.88
509.869	942.41
510.077	693.17
510.285	517.86
510.492	100.69
510.7	1290.15
510.908	630.91
511.116	421.81
511.324	327.2
511.531	673.3
511.739	842.88
511.947	610.02
512.155	693.37
512.362	846.15
512.57	511.1
512.778	348.29
512.985	218.65
513.193	981.32
513.401	1172.19
513.608	506.19
513.816	419.56
514.024	963.5
514.231	1110.34
514.439	424.48
514.646	447.41
514.854	1068.36
515.061	1089.25
515.269	470.35
515.477	469.33
515.684	645.45
515.892	1102.76
516.099	336.21
516.307	345.63
516.514	1030.88
516.722	1255.95
516.929	465.84
517.136	374.91
517.344	1240.8
517.551	1002.21
517.759	440.65
517.966	564.76
518.173	817.89
518.381	895.71
518.588	621.49
518.796	430.62
519.003	1129.18
519.21	960.63
519.418	517.45
519.625	871.55
519.832	898.38
520.039	1005.48
520.247	328.43
520.454	579.1
520.661	1208.64
520.868	1064.88
521.076	553.91
521.283	600.81
521.49	1546.56
521.697	1049.93
521.904	632.55
522.112	597.94
522.319	1197.79
522.526	1132.87
522.733	512.54
522.94	563.94
523.147	978.86
523.354	1151.09
523.561	441.88
523.768	685.8
523.975	1296.91
524.183	1053.61
524.39	772.43
524.597	494.52
524.804	975.38
525.011	809.49
525.218	572.54
525.425	573.36
525.632	1373.91
525.838	847.18
526.045	612.07
526.252	637.87
526.459	1993.83
526.666	2072.07
526.873	629.27
527.08	623.74
527.287	1400.33
527.494	1280.12
527.701	501.48
527.907	591.79
528.114	1207.82
528.321	1091.29
528.528	705.05
528.735	656.51
528.941	962.27
529.148	933.81
529.355	760.34
529.562	650.37
529.768	1477.13
529.975	989.1
530.182	764.85
530.388	655.28
530.595	1365.72
530.802	800.07
531.008	894.07
531.215	727.78
531.422	1839.21
531.628	1885.7
531.835	823.01
532.042	789.83
532.248	996.47
532.455	1180.59
532.661	760.75
532.868	703.2
533.074	1212.94
533.281	1409.55
533.487	780.21
533.694	731.26
533.9	960.63
534.107	1272.13
534.313	716.72
534.52	672.28
534.726	1333.57
534.933	1648.75
535.139	692.55
535.345	671.67
535.552	1391.73
535.758	1232.81
535.965	825.26
536.171	753.58
536.377	1382.31
536.584	1553.93
536.79	801.1
536.996	922.95
537.203	1343.81
537.409	1374.32
537.615	867.45
537.821	801.51
538.028	1470.58
538.234	1405.25
538.44	848.41
538.646	923.98
538.853	1318.62
539.059	1171.17
539.265	1326.2
539.471	654.05
539.677	1498.02
539.883	1109.73
540.09	802.12
540.296	1263.12
540.502	1227.69
540.708	1078.8
540.914	1122.22
541.12	891
541.326	1483.48
541.532	1278.48
541.738	1015.31
541.944	966.98
542.15	1580.14
542.356	1218.06
542.562	828.74
542.768	1017.98
542.974	1859.28
543.18	1806.44
543.386	913.74
543.592	767.72
543.798	1742.55
544.004	1671.69
544.21	895.92
544.415	1061.39
544.621	1475.08
544.827	1671.69
545.033	862.74
545.239	1245.92
545.445	1065.08
545.651	1468.33
545.856	970.26
546.062	940.36
546.268	1280.94
546.474	1412.62
546.679	1009.58
546.885	1016.34
547.091	1253.7
547.297	1891.23
547.502	1116.48
547.708	876.05
547.914	1251.24
548.119	1607.79
548.325	915.17
548.531	896.12
548.736	1863.79
548.942	1232.19
549.147	977.22
549.353	1272.13
549.559	1711.42
549.764	1571.75
549.97	1015.93
550.175	1068.15
550.381	1635.64
550.586	1276.84
550.792	1081.26
550.997	1091.91
551.203	1605.74
551.408	1662.68
551.614	917.63
551.819	1015.93
552.025	1915.4
552.23	1854.98
552.435	1028.63
552.641	1285.24
552.846	1305.31
553.052	1849.66
553.257	1287.28
553.462	1081.46
553.668	1355.28
553.873	1743.78
554.078	1047.67
554.283	1076.14
554.489	1623.56
554.694	1519.73
554.899	1047.06
555.105	1324.35
555.31	1691.96
555.515	1694.22
555.72	1214.99
555.925	1656.94
556.131	1772.24
556.336	1432.08
556.541	1133.48
556.746	1043.58
556.951	1904.34
557.156	1863.58
557.361	1280.73
557.567	1367.77
557.772	2041.14
557.977	1730.47
558.182	1175.06
558.387	1148.23
558.592	1442.11
558.797	1907
559.002	1281.96
559.207	1323.53
559.412	1627.45
559.617	2079.03
559.822	1224.21
560.027	1152.53
560.232	1651
560.437	1793.75
560.642	1090.88
560.847	1179.56
561.051	1603.49
561.256	1680.49
561.461	1306.54
561.666	1115.67
561.871	1649.16
562.076	1815.05
562.281	1308.58
562.485	1125.7
562.69	1849.04
562.895	1853.96
563.1	1272.54
563.305	1182.63
563.509	1955.54
563.714	2190.03
563.919	1235.88
564.123	1272.33
564.328	1595.91
564.533	1992.61
564.737	1333.36
564.942	1269.47
565.147	2055.68
565.351	2092.55
565.556	1403.2
565.761	1398.28
565.965	1799.69
566.17	1477.34
566.374	1340.53
566.579	1199.84
566.784	1795.8
566.988	1599.4
567.193	1203.32
567.397	1393.78
567.602	1412.21
567.806	1731.9
568.011	1341.56
568.215	1419.58
568.42	1649.16
568.624	1694.01
568.828	1384.15
569.033	1570.52
569.237	1957.79
569.442	1930.55
569.646	1226.05
569.85	1379.65
570.055	1752.17
570.259	1826.31
570.463	1652.85
570.668	1394.39
570.872	1782.48
571.076	1723.09
571.281	1532.22
571.485	1518.3
571.689	1828.97
571.893	1987.89
572.098	1558.85
572.302	1400.33
572.506	1979.09
572.71	1894.92
572.914	1457.68
573.119	1423.68
573.323	2131.87
573.527	2192.49
573.731	1435.35
573.935	1368.38
574.139	1883.04
574.343	1692.37
574.547	1488.6
574.751	1571.54
574.955	2080.26
575.159	2168.32
575.364	1495.36
575.568	1412.42
575.772	1871.37
575.976	2109.13
576.18	1391.73
576.383	1391.73
576.587	2215.22
576.791	2039.5
576.995	1303.46
577.199	1316.16
577.403	2006.53
577.607	2142.11
577.811	1433.31
578.015	1623.56
578.219	2020.25
578.422	2112.62
578.626	1609.02
578.83	1769.38
579.034	2223.41
579.238	2017.8
579.442	1499.04
579.645	1985.64
579.849	1954.1
580.053	2022.1
580.257	1592.02
580.46	1692.58
580.664	2211.33
580.868	2114.87
581.071	1807.67
581.275	1723.3
581.479	1683.98
581.682	2192.08
581.886	1527.92
582.09	1712.24
582.293	2181.63
582.497	2238.16
582.7	1841.87
582.904	1567.65
583.107	1998.75
583.311	1938.33
583.515	1680.29
583.718	1666.16
583.922	2175.28
584.125	2541.67
584.329	1584.85
584.532	1803.58
584.735	2428.82
584.939	2145.79
585.142	1536.52
585.346	1627.66
585.549	2176.92
585.753	1916.42
585.956	1722.27
586.159	1873
586.363	2483.5
586.566	2211.94
586.769	1644.25
586.973	1587.72
587.176	2214.81
587.379	2335.03
587.582	2035.82
587.786	1979.29
587.989	2141.49
588.192	2833.3
588.395	1799.89
588.599	2104.01
588.802	2174.26
589.005	2329.7
589.208	1808.29
589.411	1757.5
589.615	2381.92
589.818	2559.07
590.021	2051.79
590.224	1923.59
590.427	2453.19
590.63	2396.67
590.833	1638.72
591.036	1720.64
591.239	2112.82
591.442	2081.08
591.645	2029.06
591.848	1795.8
592.051	2266.83
592.254	2405.89
592.457	1924.41
592.66	1932.19
592.863	2205.18
593.066	2335.84
593.269	1868.7
593.472	1938.95
593.675	2053.23
593.878	2406.5
594.081	1943.45
594.284	1763.23
594.486	2429.85
594.689	2305.13
594.892	2007.35
595.095	1948.37
595.298	2417.97
595.5	2145.59
595.703	2014.72
595.906	2035.41
596.109	2559.69
596.311	2488.21
596.514	1707.12
596.717	1983.8
596.92	2614.57
597.122	2498.66
597.325	1707.53
597.528	1898.4
597.73	2669.87
597.933	2435.17
598.136	1940.38
598.338	1713.26
598.541	2485.14
598.743	2678.88
598.946	2008.58
599.148	2025.17
599.351	2645.5
599.554	2540.64
599.756	2108.11
599.959	2043.6
600.161	2651.44
600.363	2914.81
600.566	2194.33
600.768	2021.07
600.971	2729.67
601.173	2561.74
601.376	2004.07
601.578	2051.38
601.78	2488.83
601.983	2996.52
602.185	2006.33
602.388	2284.85
602.59	2541.26
602.792	2327.24
602.995	2158.9
603.197	2073.3
603.399	2661.47
603.601	2568.29
603.804	2092.96
604.006	2034.38
604.208	2368.82
604.41	2006.53
604.613	2238.16
604.815	2024.55
605.017	2929.96
605.219	2274.41
605.421	2544.74
605.623	2120.19
605.826	2800.12
606.028	2848.66
606.23	2109.13
606.432	2102.17
606.634	2835.75
606.836	2811.18
607.038	1943.25
607.24	2267.65
607.442	2526.92
607.644	2522.01
607.846	2270.51
608.048	2043.8
608.25	2843.13
608.452	2277.68
608.654	2198.63
608.856	1891.85
609.058	2454.22
609.26	2650.21
609.462	2218.5
609.664	2219.52
609.866	2814.46
610.067	2748.51
610.269	2331.75
610.471	2219.93
610.673	2434.97
610.875	2656.76
611.077	1998.34
611.278	2281.98
611.48	2565.22
611.682	2939.18
611.884	2247.78
612.085	2230.99
612.287	2313.93
612.489	2588.15
612.69	2040.12
612.892	2244.51
613.094	2857.05
613.295	2653.08
613.497	2053.84
613.699	2199.25
613.9	2908.46
614.102	2740.52
614.304	2246.55
614.505	2018.2
614.707	2510.95
614.908	2587.13
615.11	2044.01
615.311	2259.87
615.513	2755.88
615.714	2674.17
615.916	2086.4
616.117	2241.84
616.319	2548.01
616.52	2768.99
616.722	2192.08
616.923	2179.79
617.124	2859.51
617.326	2737.25
617.527	2335.64
617.729	2426.57
617.93	2745.23
618.131	2754.65
618.333	2204.37
618.534	2280.34
618.735	2530.81
618.937	2922.79
619.138	2150.3
619.339	2078.01
619.54	2668.84
619.742	2474.7
619.943	2383.15
620.144	2274.82
620.345	2820.6
620.546	2836.78
620.748	2203.55
620.949	2305.33
621.15	2770.22
621.351	2661.88
621.552	2187.78
621.753	2063.06
621.954	2244.1
622.155	3047.72
622.356	2130.64
622.558	2386.63
622.759	2582.22
622.96	3051.2
623.161	2277.89
623.362	2218.91
623.563	2600.24
623.764	2688.51
623.965	2241.23
624.166	2435.38
624.366	2498.66
624.567	2685.23
624.768	2028.24
624.969	2210.51
625.17	2528.76
625.371	2715.54
625.572	2407.52
625.773	2150.91
625.973	2822.85
626.174	2862.38
626.375	2354.89
626.576	2375.78
626.777	2783.74
626.977	3111.41
627.178	2360.83
627.379	2395.44
627.58	2577.91
627.78	2634.03
627.981	2301.23
628.182	2426.37
628.382	2878.56
628.583	2300.82
628.784	2120.19
628.984	2464.46
629.185	2792.13
629.386	2839.03
629.586	2407.52
629.787	2205.39
629.987	2784.35
630.188	2627.48
630.388	2309.02
630.589	2426.16
630.79	3252.31
630.99	2634.03
631.191	2373.73
631.391	2428.41
631.591	2781.69
631.792	3007.58
631.992	2455.24
632.193	2290.38
632.393	3021.91
632.594	2668.64
632.794	2285.26
632.994	2428
633.195	2598.6
633.395	2618.46
633.595	2263.76
633.796	2548.42
633.996	2501.53
634.196	2968.05
634.397	2194.54
634.597	2409.78
634.797	2466.1
634.997	3054.48
635.198	2601.06
635.398	2254.54
635.598	2740.32
635.798	2961.09
635.998	2719.02
636.199	2223.62
636.399	2517.7
636.599	2461.59
636.799	2281.16
636.999	2595.12
637.199	2779.43
637.399	2962.52
637.599	2270.51
637.799	2435.38
637.999	2540.23
638.199	2988.12
638.399	2277.68
638.599	2297.34
638.799	2860.33
638.999	3082.33
639.199	2507.46
639.399	2392.78
639.599	2987.1
639.799	2450.94
639.999	2229.15
640.199	2271.95
640.399	2710.42
640.599	2741.75
640.799	2407.32
640.998	2544.12
641.198	2882.24
641.398	2775.54
641.598	2442.75
641.798	2377.42
641.997	3644.5
642.197	2633.62
642.397	2463.23
642.597	2263.35
642.796	2812
642.996	2888.59
643.196	2502.55
643.395	2180.81
643.595	2730.69
643.795	2246.55
643.994	2299.6
644.194	2388.48
644.394	2859.31
644.593	2817.12
644.793	2174.26
644.992	2453.4
645.192	2805.44
645.392	2232.83
645.591	2474.7
645.791	2357.35
645.99	2861.15
646.19	2599.42
646.389	2342.19
646.589	2368.41
646.788	2816.5
646.987	2788.86
647.187	2609.66
647.386	2533.27
647.586	2656.97
647.785	2953.1
647.984	2305.94
648.184	2405.07
648.383	2465.69
648.582	2531.63
648.782	2295.5
648.981	2467.73
649.18	2445
649.38	2670.69
649.579	2356.32
649.778	2306.76
649.977	2827.97
650.177	2790.9
650.376	2261.91
650.575	2191.46
650.774	3019.25
650.973	2751.99
651.173	2124.29
651.372	2402.4
651.571	2674.37
651.77	2893.92
651.969	2346.9
652.168	2447.46
652.367	2393.19
652.566	2626.25
652.765	2331.54
652.964	2627.07
653.163	3067.17
653.362	2613.34
653.561	2323.56
653.76	2337.89
653.959	2642.02
654.158	2831.04
654.357	2582.01
654.556	2341.78
654.755	2811.79
654.954	2851.11
655.153	2381.92
655.352	2470.4
655.551	2958.63
655.749	2523.44
655.948	2429.64
656.147	2461.79
656.346	2759.77
656.545	2656.56
656.743	2407.52
656.942	2442.34
657.141	2722.71
657.34	2475.11
657.538	2412.03
657.737	2411.01
657.936	2674.37
658.135	2725.98
658.333	2318.85
658.532	2510.13
658.731	3099.33
658.929	2916.44
659.128	2700.38
659.326	2314.96
659.525	2990.38
659.724	2690.96
659.922	2166.07
660.121	2233.45
660.319	2750.15
660.518	2495.79
660.716	2302.67
660.915	2273.38
661.113	3018.23
661.312	2425.14
661.51	2525.69
661.709	2252.49
661.907	2829.2
662.105	2978.29
662.304	2382.95
662.502	2433.53
662.701	2892.07
662.899	2627.68
663.097	2762.03
663.296	2257.82
663.494	2889.41
663.692	3056.12
663.891	2284.24
664.089	2193.51
664.287	2793.57
664.485	2975.43
664.684	2290.58
664.882	2462.82
665.08	2667.21
665.278	2696.29
665.476	2257.2
665.675	2635.87
665.873	3100.97
666.071	2934.88
666.269	2285.06
666.467	2646.11
666.665	2749.74
666.863	2616.83
667.061	2508.49
667.259	2349.16
667.457	2656.97
667.655	2860.94
667.853	2214.61
668.051	2520.57
668.249	2398.51
668.447	3077.21
668.645	2252.08
668.843	2576.48
669.041	2846.2
669.239	2557.44
669.437	2421.65
669.635	2484.32
669.833	2601.67
670.031	2812.82
670.229	2470.4
670.426	2431.89
670.624	2527.53
670.822	2426.77
671.02	2302.26
671.218	2404.86
671.415	2417.56
671.613	2670.69
671.811	2489.44
672.009	2370.87
672.206	2829.61
672.404	2610.07
672.602	2636.28
672.799	2437.63
672.997	2821.83
673.195	2866.27
673.392	2489.85
673.59	2221.36
673.788	2823.88
673.985	2109.34
674.183	2482.07
674.38	2307.38
674.578	2830.02
674.775	2487.39
674.973	2250.24
675.17	2244.92
675.368	2927.71
675.565	2947.78
675.763	2329.91
675.96	2333.8
676.158	2898.63
676.355	2615.19
676.553	2308.2
676.75	2384.18
676.947	2648.98
677.145	2589.59
677.342	2440.5
677.539	2447.66
677.737	2774.11
677.934	3126.36
678.131	2550.06
678.329	2286.69
678.526	3116.12
678.723	2866.47
678.92	2459.75
679.118	2419.81
679.315	2415.51
679.512	2989.56
679.709	2387.86
679.906	2444.59
680.104	2963.14
680.301	2657.17
680.498	2275.23
680.695	2298.78
680.892	2534.09
681.089	2570.95
681.286	2532.04
681.483	2244.71
681.68	2780.05
681.877	2905.59
682.075	2443.77
682.272	2606.18
682.469	2849.07
682.665	2660.24
682.862	2331.34
683.059	2263.14
683.256	2794.18
683.453	2783.74
683.65	2554.77
683.847	2468.55
684.044	2764.89
684.241	2591.23
684.438	2638.13
684.635	2334.82
684.831	3232.24
685.028	3221.8
685.225	2427.18
685.422	2690.55
685.619	2737.45
685.815	2794.18
686.012	2597.98
686.209	2506.65
686.405	2516.27
686.602	2957.2
686.799	2362.26
686.996	2455.04
687.192	2639.76
687.389	3325.42
687.586	2506.65
687.782	2572.59
687.979	3222.82
688.175	3031.34
688.372	2564.4
688.568	2608.84
688.765	2757.93
688.962	3099.74
689.158	2717.59
689.355	2380.29
689.551	2995.29
689.748	2753.43
689.944	2688.51
690.14	2512.58
690.337	3092.16
690.533	2874.87
690.73	2819.37
690.926	2615.39
691.123	2972.56
691.319	2890.23
691.515	2460.36
691.712	2791.72
691.908	3037.07
692.104	2943.07
692.301	2755.06
692.497	2477.97
692.693	3071.68
692.889	3011.06
693.086	2750.76
693.282	2460.98
693.478	2951.46
693.674	3310.06
693.87	2633.01
694.067	2453.19
694.263	2960.27
694.459	2812.61
694.655	2824.49
694.851	2736.43
695.047	3052.22
695.243	3077.21
695.439	2746.26
695.635	2615.8
695.831	3030.31
696.027	2861.56
696.224	2577.71
696.42	3049.56
696.615	3259.68
696.811	3102.6
697.007	2489.85
697.203	2615.19
697.399	3050.38
697.595	3127.79
697.791	2533.27
697.987	2756.5
698.183	2699.56
698.379	2741.55
698.575	2645.7
698.77	2692.4
698.966	3122.26
699.162	3198.24
699.358	2647.75
699.554	2693.83
699.749	3084.38
699.945	3102.19
700.141	2783.94
700.337	2737.66
700.532	2880.19
700.728	2682.16
700.924	2560.71
701.119	2476.95
701.315	3060.21
701.511	2844.36
701.706	2770.83
701.902	2445.82
702.097	2939.59
702.293	3017.2
702.489	2631.98
702.684	2556.41
702.88	2939.38
703.075	2832.07
703.271	2629.52
703.466	2469.17
703.662	2843.33
703.857	3001.64
704.053	2601.88
704.248	2649.18
704.443	3105.88
704.639	3056.53
704.834	2682.98
705.03	2646.11
705.225	3049.77
705.42	3207.26
705.616	2769.6
705.811	2530.4
706.006	2832.07
706.202	2825.31
706.397	2742.57
706.592	2495.79
706.787	3007.17
706.983	2883.27
707.178	2912.96
707.373	2718.61
707.568	3074.14
707.763	3168.14
707.959	2522.41
708.154	2562.56
708.349	2957.61
708.544	3032.77
708.739	2848.04
708.934	2543.51
709.129	3084.58
709.324	3188.82
709.519	2584.47
709.714	2481.05
709.909	3148.48
710.104	2872.82
710.299	2627.48
710.494	2652.67
710.689	3113.05
710.884	2927.71
711.079	2700.18
711.274	2742.78
711.469	3068.81
711.664	3004.51
711.859	2556.62
712.054	2689.73
712.249	3065.95
712.443	3113.05
712.638	2507.06
712.833	2539.41
713.028	2871.59
713.223	2823.06
713.417	2882.04
713.612	2574.64
713.807	3134.55
714.002	3587.36
714.196	2828.18
714.391	2578.53
714.586	3090.73
714.78	2935.69
714.975	2594.5
715.17	2577.71
715.364	2831.04
715.559	3169.37
715.754	2277.68
715.948	2523.23
716.143	3379.08
716.337	2948.8
716.532	2899.45
716.726	2621.33
716.921	3061.03
717.115	3297.16
717.31	2446.64
717.504	3252.93
717.699	2862.58
717.893	3052.43
718.088	2482.27
718.282	2426.77
718.476	2977.88
718.671	3055.5
718.865	2563.99
719.059	2589.18
719.254	2848.86
719.448	3272.59
719.642	4198.27
719.837	2393.8
720.031	3086.84
720.225	3131.69
720.419	2648.36
720.614	2561.74
720.808	3097.48
721.002	2861.97
721.196	2528.76
721.39	2594.09
721.585	3140.49
721.779	3057.75
721.973	2662.7
722.167	2389.71
722.361	2995.29
722.555	3186.57
722.749	2573.2
722.943	2602.7
723.137	2650
723.331	2964.78
723.525	2614.37
723.719	2624.4
723.913	3092.36
724.107	3242.07
724.301	2440.5
724.495	2644.88
724.689	3299.41
724.883	3155.85
725.077	2537.77
725.271	2590.2
725.465	3146.84
725.659	2891.46
725.853	2670.69
726.046	2422.88
726.24	2711.44
726.434	3139.47
726.628	2578.73
726.822	2589.79
727.015	3177.36
727.209	3257.64
727.403	2609.25
727.596	2436.6
727.79	3025.19
727.984	3073.73
728.177	2600.85
728.371	2634.85
728.565	3123.08
728.758	2636.08
728.952	2471.42
729.146	2503.98
729.339	3110.8
729.533	2886.54
729.726	2620.92
729.92	2410.8
730.113	3187.39
730.307	2911.94
730.5	2595.53
730.694	2489.65
730.887	2849.48
731.081	3009.63
731.274	2546.58
731.468	2576.07
731.661	2895.76
731.854	2765.92
732.048	2502.75
732.241	2435.79
732.435	2742.98
732.628	2881.22
732.821	2609.86
733.014	2460.57
733.208	2596.14
733.401	3056.12
733.594	2566.04
733.788	2533.88
733.981	3166.91
734.174	3003.28
734.367	2536.14
734.56	2680.72
734.754	3135.17
734.947	2901.29
735.14	2497.02
735.333	2573.2
735.526	3123.08
735.719	2693.83
735.912	2479.82
736.105	2511.15
736.298	2906.61
736.491	2767.35
736.684	2495.79
736.877	2528.35
737.07	3005.33
737.263	3208.28
737.456	2543.51
737.649	2443.98
737.842	2764.89
738.035	2899.86
738.228	2595.73
738.421	2682.57
738.614	3185.55
738.807	3072.7
739	2332.36
739.192	2449.51
739.385	2978.5
739.578	2991.19
739.771	2858.49
739.964	2510.54
740.156	2962.11
740.349	2835.34
740.542	2749.53
740.735	2384.38
740.927	2577.51
741.12	2613.34
741.313	2369.02
741.505	2707.14
741.698	2927.3
741.891	2963.75
742.083	2689.94
742.276	2511.36
742.468	2841.49
742.661	2826.13
742.854	2557.23
743.046	2478.18
743.239	3148.48
743.431	2819.98
743.624	2564.19
743.816	2290.58
744.009	2795.82
744.201	2946.96
744.393	2682.77
744.586	2407.32
744.778	3075.57
744.971	2808.93
745.163	2576.28
745.355	2631.98
745.548	2859.31
745.74	2772.27
745.932	2562.76
746.125	2462.2
746.317	3312.11
746.509	2914.19
746.702	2477.36
746.894	2587.34
747.086	2887.36
747.278	3080.9
747.471	2624.2
747.663	2580.99
747.855	2886.54
748.047	3255.38
748.239	2449.92
748.431	2434.97
748.623	3224.05
748.815	3141.52
749.008	2346.49
749.2	2430.67
749.392	2977.68
749.584	2958.43
749.776	2565.01
749.968	2605.77
750.16	3167.73
750.352	2764.89
750.544	2553.54
750.736	2309.63
750.928	2935.69
751.12	2834.93
751.311	2461.79
751.503	2509.51
751.695	2853.98
751.887	2780.87
752.079	2239.8
752.271	2409.78
752.463	3470.01
752.654	2960.27
752.846	2500.3
753.038	2436.81
753.23	2624.4
753.421	2943.07
753.613	2431.69
753.805	2672.12
753.997	2906.61
754.188	3012.08
754.38	2329.29
754.572	2406.7
754.763	2663.11
754.955	2876.51
755.146	2489.85
755.338	2487.8
755.53	2893.3
755.721	2698.13
755.913	2197.2
756.104	2324.17
756.296	2680.11
756.487	2915.22
756.679	2276.66
756.87	2356.32
757.062	2593.89
757.253	2812.2
757.445	2365.54
757.636	2507.26
757.827	2757.11
758.019	3323.99
758.21	2238.98
758.401	2370.46
758.593	3206.85
758.784	3044.03
758.975	2182.25
759.167	2231.81
759.358	2724.34
759.549	2948.19
759.74	2303.08
759.932	2313.11
760.123	2937.95
760.314	2525.49
760.505	2420.63
760.696	2311.47
760.888	3045.06
761.079	2591.84
761.27	2257.2
761.461	2116.3
761.652	3019.66
761.843	2567.88
762.034	2372.71
762.225	2657.99
762.416	2658.81
762.607	2638.53
762.798	2293.45
762.989	2296.73
763.18	3684.64
763.371	2545.35
763.562	2296.93
763.753	2321.1
763.944	2805.65
764.135	2856.64
764.326	2477.97
764.517	2291.4
764.708	2712.67
764.899	2743.8
765.089	2216.24
765.28	2120.6
765.471	2563.58
765.662	2759.77
765.853	2340.76
766.043	2132.48
766.234	2801.96
766.425	2813.43
766.615	2292.02
766.806	2065.51
766.997	2861.97
767.187	2666.8
767.378	2208.87
767.569	2060.19
767.759	2697.72
767.95	2548.42
768.141	2380.49
768.331	2203.55
768.522	2630.34
768.712	2751.38
768.903	2185.52
769.093	2188.8
769.284	2828.79
769.474	2650.82
769.665	2026.6
769.855	1970.08
770.046	2715.95
770.236	2479
770.426	2368.41
770.617	2099.1
770.807	2643.04
770.998	2499.07
771.188	2385.61
771.378	2131.87
771.569	2729.05
771.759	2676.63
771.949	2055.27
772.139	1923.18
772.33	2556.41
772.52	2691.78
772.71	2091.73
772.9	1988.1
773.09	2852.96
773.281	2919.52
773.471	2114.25
773.661	2149.48
773.851	2729.87
774.041	2439.27
774.231	2053.02
774.421	2348.95
774.611	2813.84
774.802	2455.86
774.992	2201.91
775.182	2029.26
775.372	2505.21
775.562	2690.96
775.752	2150.5
775.942	2113.85
776.131	2762.85
776.321	2621.13
776.511	2087.43
776.701	2013.49
776.891	2759.98
777.081	2207.44
777.271	2200.47
777.461	2020.25
777.651	2599.01
777.84	2729.26
778.03	2250.03
778.22	2094.59
778.41	2693.22
778.599	2255.97
778.789	2134.94
778.979	1995.47
779.169	2545.76
779.358	2428.82
779.548	2376.39
779.738	1880.99
779.927	2525.49
780.117	2185.93
780.307	2073.7
780.496	1742.34
780.686	2512.38
780.875	2894.94
781.065	2022.71
781.254	1984.62
781.444	2425.55
781.633	2442.13
781.823	1974.58
782.012	1983.8
782.202	2291.4
782.391	2346.29
782.581	1924.41
782.77	2242.46
782.96	2596.96
783.149	2351.2
783.338	1992.2
783.528	1791.09
783.717	2613.55
783.906	2686.66
784.096	2123.47
784.285	1899.01
784.474	2257.2
784.663	2166.48
784.853	1978.06
785.042	2079.23
785.231	2282.8
785.42	2508.28
785.61	2123.88
785.799	1915.19
785.988	2409.37
786.177	2233.86
786.366	1981.96
786.555	2187.16
786.744	2519.75
786.933	2310.25
787.122	1856.21
787.312	1815.46
787.501	2181.02
787.69	2448.07
787.879	1929.94
788.068	1853.14
788.257	1984.41
788.445	2189.01
788.634	1969.05
788.823	1775.32
789.012	2861.76
789.201	2644.27
789.39	1966.6
789.579	1864.61
789.768	2300.62
789.957	2253.93
790.145	1878.12
790.334	1637.69
790.523	2140.47
790.712	2254.75
790.9	1968.85
791.089	1754.63
791.278	2477.15
791.467	2341.99
791.655	2227.51
791.844	2475.31
792.033	2098.49
792.221	2259.87
792.41	1901.88
792.599	1725.14
792.787	2386.43
792.976	2468.76
793.164	1748.49
793.353	1896.35
793.541	2385.2
793.73	2394.21
793.918	1930.96
794.107	1840.03
794.295	2233.86
794.484	2187.78
794.672	1922.16
794.861	1853.34
795.049	2354.48
795.238	2629.52
795.426	1726.37
795.614	1928.3
795.803	2335.84
795.991	2554.16
796.179	1834.09
796.368	1804.19
796.556	2479.41
796.744	1961.27
796.932	1805.83
797.121	1730.87
797.309	2183.07
797.497	2402.61
797.685	1878.94
797.874	1757.29
798.062	2180.61
798.25	2550.68
798.438	1699.95
798.626	1820.78
798.814	2338.1
799.002	2681.75
799.19	1964.75
799.378	1874.44
799.566	2418.58
799.755	2515.45
799.943	2075.75
800.131	1825.08
800.318	2242.05
800.506	2311.88
800.694	1781.05
800.882	1939.77
801.07	2530.81
801.258	2184.7
801.446	1799.89
801.634	1845.56
801.822	2204.57
802.01	2194.74
802.197	1803.99
802.385	1980.32
802.573	2266.01
802.761	1952.47
802.949	1883.45
803.136	1650.8
803.324	2454.63
803.512	2326.22
803.699	1959.84
803.887	1633.19
804.075	2483.09
804.262	2116.51
804.45	1729.03
804.638	1990.56
804.825	2001.82
805.013	2086.61
805.201	1795.39
805.388	1742.55
805.576	2177.95
805.763	2579.14
805.951	1884.88
806.138	1925.64
806.326	2637.92
806.513	2347.31
806.701	1877.3
806.888	1823.24
807.075	2333.18
807.263	2621.33
807.45	1721.04
807.638	1992.61
807.825	2668.03
808.012	2472.03
808.2	1936.9
808.387	2152.55
808.574	2330.52
808.761	2571.77
808.949	1795.8
809.136	1929.32
809.323	2061.42
809.51	2156.65
809.698	2192.08
809.885	2068.99
810.072	2348.34
810.259	2536.34
810.446	1945.09
810.633	1848.02
810.82	2497.84
811.008	2599.42
811.195	2071.25
811.382	1937.51
811.569	2260.07
811.756	1978.47
811.943	1877.1
812.13	1844.54
812.317	2086.2
812.504	2088.04
812.691	1982.16
812.878	1988.1
813.064	2565.83
813.251	2275.63
813.438	1790.88
813.625	2084.35
813.812	2223.82
813.999	2200.47
814.186	2015.54
814.372	1915.81
814.559	2273.38
814.746	2589.18
814.933	1839.42
815.12	2076.16
815.306	2130.02
815.493	2013.49
815.68	1846.99
815.866	1917.85
816.053	2480.02
816.24	2633.82
816.426	1937.92
816.613	1758.93
816.799	2369.84
816.986	2516.07
817.173	1839.83
817.359	1825.08
817.546	2291.2
817.732	1894.51
817.919	1679.06
818.105	1981.96
818.292	2092.14
818.478	2302.26
818.665	2000.39
818.851	1817.09
819.037	2793.77
819.224	2265.39
819.41	1717.15
819.597	1778.59
819.783	2686.87
819.969	2332.98
820.156	1880.79
820.342	1700.97
820.528	3072.5
820.714	2158.29
820.901	2098.28
821.087	1800.1
821.273	2578.53
821.459	2134.32
821.646	1757.5
821.832	1686.64
822.018	2225.25
822.204	2217.27
822.39	1815.05
822.576	1711.01
822.762	2312.91
822.948	2244.3
823.134	2040.32
823.32	1832.86
823.507	1901.68
823.693	2282.8
823.879	2288.33
824.065	1791.09
824.25	2199.86
824.436	1927.48
824.622	1745.62
824.808	1703.02
824.994	2034.38
825.18	1951.85
825.366	1712.03
825.552	1756.06
825.738	2084.56
825.923	2423.09
826.109	2023.32
826.295	1737.84
826.481	1963.11
826.667	2004.69
826.852	1955.13
827.038	1674.15
827.224	2400.15
827.409	2509.51
827.595	1586.9
827.781	1986.26
827.966	2443.36
828.152	2386.02
828.338	1805.83
828.523	1589.57
828.709	2014.93
828.894	2370.46
829.08	1745.62
829.266	1708.14
829.451	2111.8
829.637	2297.96
829.822	1838.8
830.008	1689.71
830.193	2362.67
830.378	2520.98
830.564	1826.72
830.749	1641.38
830.935	2177.95
831.12	2179.99
831.305	1785.35
831.491	1811.97
831.676	1750.54
831.861	2301.64
832.047	1787.19
832.232	1586.29
832.417	2321.51
832.602	2140.06
832.788	1636.67
832.973	1632.78
833.158	2032.75
833.343	2106.47
833.528	1833.07
833.714	1835.73
833.899	2175.69
834.084	2566.65
834.269	1897.37
834.454	1692.37
834.639	2242.25
834.824	2055.68
835.009	1851.5
835.194	1900.45
835.379	2259.05
835.564	2463.02
835.749	1938.74
835.934	1583.83
836.119	2251.06
836.304	2091.32
836.489	1586.49
836.674	1957.18
836.859	1877.51
837.044	2369.84
837.228	1728.01
837.413	1666.98
837.598	2091.93
837.783	2276.04
837.968	1714.9
838.152	1535.09
838.337	1563.97
838.522	2331.75
838.707	2202.73
838.891	1895.12
839.076	2113.03
839.261	2220.95
839.445	1764.26
839.63	1746.03
839.815	2441.52
839.999	1958.61
840.184	1613.94
840.368	1667.39
840.553	2220.75
840.737	2163
840.922	1532.43
841.106	1506.62
841.291	1749.1
841.475	2054.45
841.66	1636.46
841.844	1596.73
842.029	2666.59
842.213	1689.51
842.397	1665.95
842.582	1434.53
842.766	2263.55
842.951	2200.68
843.135	1665.14
843.319	1581.99
843.504	2041.76
843.688	2269.08
843.872	1387.43
844.056	1488.19
844.241	2108.32
844.425	1893.07
844.609	1788.01
844.793	1389.89
844.977	2216.04
845.161	2020.87
845.346	1438.22
845.53	1519.73
845.714	1890.21
845.898	2361.03
846.082	1389.89
846.266	1508.06
846.45	1910.07
846.634	1988.51
846.818	1527.51
847.002	1724.73
847.186	2141.29
847.37	1658.58
847.554	1435.35
847.738	1706.09
847.922	2004.89
848.106	1981.14
848.29	1428.8
848.473	1472.01
848.657	2080.67
848.841	1837.16
849.025	1502.94
849.209	1326.61
849.392	2063.67
849.576	1799.48
849.76	1244.89
849.944	1704.25
850.127	2223
850.311	1577.69
850.495	1370.84
850.678	1310.02
850.862	2118.76
851.046	2240.2
851.229	1798.66
851.413	1383.74
851.596	1880.17
851.78	1818.94
851.964	1629.91
852.147	1495.77
852.331	2590.82
852.514	2196.79
852.698	1568.88
852.881	1311.04
853.065	2009.81
853.248	1822.42
853.431	1608.82
853.615	1589.16
853.798	2489.44
853.982	1926.46
854.165	1639.54
854.348	1429.21
854.532	1532.43
854.715	1671.89
854.898	1499.66
855.081	1453.38
855.265	2093.37
855.448	2296.73
855.631	1398.49
855.814	1415.49
855.997	2003.25
856.181	1781.66
856.364	1514.81
856.547	1269.47
856.73	1900.65
856.913	1858.26
857.096	1276.23
857.279	1516.25
857.462	1677.83
857.645	2015.95
857.828	1541.64
858.011	1593.66
858.194	1631.55
858.377	1945.5
858.56	1283.8
858.743	1440.88
858.926	1575.02
859.109	1867.47
859.292	1333.77
859.475	1261.07
859.658	2009.19
859.841	1905.98
860.023	1258.61
860.206	1247.76
860.389	1793.75
860.572	2005.71
860.755	1398.49
860.937	1421.02
861.12	1709.99
861.303	1766.3
861.486	1403.2
861.668	1408.12
861.851	1803.58
862.034	1846.18
862.216	1534.27
862.399	1172.39
862.581	1854.16
862.764	2097.26
862.947	1437.4
863.129	1273.56
863.312	1404.84
863.494	2045.44
863.677	1680.9
863.859	1098.87
864.042	1884.27
864.224	1938.95
864.406	1477.95
864.589	1149.05
864.771	1785.76
864.954	1456.86
865.136	1322.71
865.318	1115.46
865.501	1929.53
865.683	1224
865.865	1283.6
866.048	1269.47
866.23	1773.06
866.412	1702.41
866.594	1129.59
866.777	1381.08
866.959	1775.11
867.141	1503.14
867.323	1564.58
867.505	1421.22
867.687	1648.14
867.869	1681.52
868.052	1295.68
868.234	1207.62
868.416	1665.95
868.598	1863.99
868.78	1296.3
868.962	1152.73
869.144	1896.97
869.326	1813.61
869.508	1265.17
869.69	1166.45
869.872	1465.66
870.054	1935.26
870.236	1092.73
870.417	1162.77
870.599	1541.23
870.781	2010.22
870.963	1447.64
871.145	1219.5
871.327	1363.67
871.508	1843.92
871.69	1278.89
871.872	1276.23
872.054	1599.8
872.235	1767.94
872.417	1381.08
872.599	1110.55
872.78	2079.03
872.962	1677.83
873.144	1083.72
873.325	1299.57
873.507	1965.98
873.689	1650.39
873.87	1155.19
874.052	1413.85
874.233	1597.55
874.415	1980.32
874.596	1344.63
874.778	1157.03
874.959	1662.88
875.141	1919.49
875.322	1316.37
875.503	1160.52
875.685	1749.31
875.866	1242.64
876.048	1177.31
876.229	1162.77
876.41	1610.66
876.592	1724.12
876.773	1309.81
876.954	1076.34
877.136	1964.14
877.317	1513.79
877.498	1087.4
877.679	1341.56
877.86	1750.95
878.042	1639.95
878.223	1229.94
878.404	1671.89
878.585	1791.9
878.766	2091.93
878.947	1585.88
879.128	1477.75
879.309	1788.22
879.49	1931.99
879.672	1364.49
879.853	1335
880.034	1475.29
880.215	1584.65
880.396	1364.7
880.576	1294.86
880.757	1452.15
880.938	2029.88
881.119	1196.15
881.3	1259.43
881.481	1489.42
881.662	2501.12
881.843	1151.71
882.023	1157.03
882.204	1799.69
882.385	1619.47
882.566	1269.67
882.747	1236.5
882.927	1606.77
883.108	1723.09
883.289	1200.25
883.469	1508.88
883.65	1552.91
883.831	1665.14
884.011	1505.6
884.192	1272.95
884.373	1882.63
884.553	1775.32
884.734	1457.27
884.914	1641.17
885.095	2478.18
885.275	2023.32
885.456	1637.49
885.636	1145.98
885.817	1641.17
885.997	1717.97
886.178	1198.4
886.358	1373.3
886.538	1678.24
886.719	2834.32
886.899	1256.57
887.08	1353.64
887.26	1934.65
887.44	1428.8
887.621	1208.03
887.801	1421.22
887.981	2211.74
888.161	1888.98
888.342	1357.53
888.522	1345.65
888.702	1892.25
888.882	1960.86
889.062	1471.81
889.242	1117.92
889.423	2041.96
889.603	1854.57
889.783	1442.93
889.963	1322.92
890.143	1804.6
890.323	1966.8
890.503	1310.22
890.683	1363.06
890.863	1704.66
891.043	1697.7
891.223	1449.69
891.403	1518.71
891.583	1661.45
891.763	1808.7
891.943	1409.14
892.122	1297.52
892.302	1682.75
892.482	1648.96
892.662	1467.51
892.842	1373.09
893.022	1806.65
893.201	1591.61
893.381	1481.23
893.561	1298.14
893.741	1883.04
893.92	1748.28
894.1	1491.06
894.28	1429.82
894.459	1916.83
894.639	1830
894.819	1335.41
894.998	1411.19
895.178	1793.34
895.357	1772.65
895.537	1305.1
895.716	1198.61
895.896	1660.22
896.075	2076.57
896.255	1322.71
896.434	1102.76
896.614	1997.32
896.793	1976.63
896.973	1533.86
897.152	1450.92
897.331	1743.57
897.511	1849.86
897.69	1167.68
897.87	1443.54
898.049	1801.94
898.228	1665.95
898.407	1515.22
898.587	1478.97
898.766	1502.73
898.945	1854.57
899.124	1670.46
899.304	1437.2
899.483	1827.74
899.662	2141.9
899.841	1297.52
900.02	1303.26
900.199	1926.46
900.378	1765.69
900.557	1247.76
900.737	1227.89
900.916	1776.95
901.095	1808.7
901.274	1638.51
901.453	1172.19
901.632	1466.69
901.811	1471.4
901.989	1282.78
902.168	1225.44
902.347	1844.74
902.526	1486.14
902.705	1319.85
902.884	1416.92
903.063	2025.58
903.242	1918.88
903.42	1239.16
903.599	1440.68
903.778	1886.11
903.957	2043.19
904.135	1467.51
904.314	1366.34
904.493	1736.61
904.672	1697.49
904.85	1375.14
905.029	1284.42
905.207	1711.42
905.386	2292.43
905.565	1156.42
905.743	1251.24
905.922	1531.61
906.1	1774.09
906.279	1161.95
906.457	1215.81
906.636	1517.07
906.814	1530.99
906.993	1276.43
907.171	1179.97
907.35	1736.4
907.528	1846.18
907.707	1510.72
907.885	1162.15
908.063	1942.23
908.242	1415.28
908.42	1230.76
908.598	988.08
908.777	1776.34
908.955	1423.07
909.133	1394.39
909.311	1097.03
909.49	1486.35
909.668	1554.54
909.846	1245.3
910.024	1016.34
910.202	1538.37
910.38	1703.23
910.559	1146.18
910.737	1112.18
910.915	1605.54
911.093	1585.47
911.271	1198.81
911.449	1346.68
911.627	1663.7
911.805	2064.08
911.983	1165.02
912.161	1134.92
912.339	1536.32
912.517	1840.24
912.695	1284.01
912.872	1232.6
913.05	1372.69
913.228	1630.93
913.406	1212.74
913.584	1089.25
913.762	1725.14
913.939	1372.48
914.117	1124.68
914.295	1053.2
914.473	1561.92
914.65	1627.86
914.828	1175.67
915.006	1059.14
915.184	1216.63
915.361	1572.77
915.539	1257.38
915.716	1349.75
915.894	1537.55
916.072	1643.84
916.249	1512.56
916.427	1319.85
916.604	1218.27
916.782	1667.18
916.959	1062.83
917.137	1066.92
917.314	1508.67
917.492	1512.15
917.669	1260.66
917.847	1191.03
918.024	1494.13
918.201	1261.07
918.379	1175.88
918.556	1125.7
918.733	1577.69
918.911	1344.42
919.088	1305.92
919.265	1060.98
919.442	1501.3
919.62	1431.67
919.797	1052.79
919.974	985.41
920.151	1479.59
920.328	1423.47
920.506	1043.58
920.683	1622.54
920.86	1103.17
921.037	1259.64
921.214	1166.05
921.391	987.87
921.568	1550.86
921.745	1176.9
921.922	1100.51
922.099	982.34
922.276	1544.92
922.453	1431.67
922.63	952.03
922.807	1340.94
922.984	1438.42
923.161	1223.59
923.338	1073.68
923.514	984.19
923.691	1399.1
923.868	1484.91
924.045	1025.76
924.222	890.39
924.399	1422.25
924.575	1513.79
924.752	1061.39
924.929	1117.1
925.105	1413.44
925.282	1106.45
925.459	1059.35
925.635	1065.29
925.812	1359.99
925.989	1164.2
926.165	1145.77
926.342	829.56
926.518	1094.16
926.695	1268.44
926.871	963.71
927.048	815.02
927.224	1511.54
927.401	1191.03
927.577	1096.41
927.754	851.89
927.93	1550.04
928.107	1483.48
928.283	851.27
928.459	1071.43
928.636	1403.61
928.812	1221.14
928.988	886.7
929.165	784.3
929.341	1241
929.517	1306.54
929.693	1306.33
929.87	734.54
930.046	1392.35
930.222	1120.38
930.398	807.04
930.574	1042.96
930.751	1217.24
930.927	1126.52
931.103	944.45
931.279	932.58
931.455	1001.59
931.631	1296.09
931.807	766.08
931.983	755.22
932.159	876.26
932.335	1255.13
932.511	919.06
932.687	896.12
932.863	1238.34
933.039	1223.18
933.215	746.62
933.391	723.89
933.566	1138.6
933.742	1224.82
933.918	887.93
934.094	689.89
934.27	1177.92
934.445	1184.68
934.621	976.81
934.797	776.32
934.973	1356.71
935.148	1190.42
935.324	749.69
935.5	618.62
935.675	1393.78
935.851	1243.25
936.027	928.48
936.202	886.91
936.378	1283.8
936.553	1098.67
936.729	1345.24
936.904	780.21
937.08	892.23
937.255	982.96
937.431	827.52
937.606	720.2
937.782	994.63
937.957	1192.05
938.133	867.86
938.308	790.24
938.483	1102.15
938.659	931.96
938.834	929.1
939.009	714.06
939.185	1102.35
939.36	911.89
939.535	450.89
939.71	940.15
939.886	1354.25
940.061	1212.74
940.236	1045.21
940.411	833.46
940.586	1190.62
940.761	1246.53
940.937	882.81
941.112	697.47
941.287	1112.59
941.462	1102.76
941.637	615.55
941.812	841.85
941.987	1165.02
942.162	1006.3
942.337	879.12
942.512	755.02
942.687	1325.38
942.862	1210.28
943.037	588.93
943.212	475.88
943.386	948.35
943.561	1053.2
943.736	927.87
943.911	1123.24
944.086	1196.36
944.26	1092.32
944.435	737.41
944.61	867.25
944.785	1230.76
944.959	1483.07
945.134	789.63
945.309	653.44
945.483	790.24
945.658	1221.95
945.833	452.74
946.007	522.16
946.182	1333.57
946.357	796.8
946.531	638.69
946.706	610.64
946.88	588.52
947.055	1041.94
947.229	657.33
947.404	564.56
947.578	1131.02
947.752	873.39
947.927	524.42
948.101	446.39
948.276	1218.68
948.45	1026.58
948.624	833.25
948.799	572.95
948.973	982.34
949.147	642.79
949.321	643.81
949.496	624.56
949.67	1221.55
949.844	832.84
950.018	602.03
950.193	604.08
950.367	1419.79
950.541	800.48
950.715	713.24
950.889	757.68
951.063	832.02
951.237	1059.14
951.411	400.92
951.585	429.19
951.759	977.63
951.933	880.76
952.107	494.31
952.281	739.66
952.455	1190.21
952.629	1023.3
952.803	522.37
952.977	521.14
953.151	1033.54
953.325	904.52
953.499	665.52
953.672	404
953.846	635.62
954.02	759.32
954.194	456.83
954.368	496.77
954.541	998.93
954.715	744.16
954.889	597.73
955.062	390.27
955.236	766.69
955.41	733.92
955.583	662.04
955.757	334.16
955.93	719.18
956.104	552.47
956.278	449.46
956.451	495.13
956.625	898.58
956.798	1148.43
956.972	766.9
957.145	375.12
957.319	829.36
957.492	769.56
957.665	650.16
957.839	387
958.012	863.76
958.185	657.74
958.359	508.65
958.532	636.65
958.705	869.7
958.879	826.29
959.052	511.51
959.225	245.69
959.398	748.26
959.572	774.06
959.745	396.21
959.918	462.77
960.091	719.59
960.264	911.48
960.438	372.87
960.611	351.98
960.784	946.71
960.957	580.12
961.13	855.37
961.303	358.94
961.476	730.65
961.649	1052.38
961.822	331.5
961.995	522.16
962.168	746.83
962.341	809.08
962.514	399.29
962.686	375.94
962.859	740.68
963.032	840.83
963.205	395.39
963.378	195.72
963.551	745.39
963.723	660.2
963.896	534.25
964.069	554.73
964.242	710.17
964.414	966.57
964.587	412.19
964.76	500.86
964.932	759.11
965.105	641.15
965.278	404.2
965.45	302.42
965.623	737.41
965.795	814.2
965.968	403.79
966.14	391.09
966.313	587.7
966.485	693.37
966.658	357.92
966.83	311.02
967.003	895.71
967.175	867.66
967.348	357.51
967.52	382.7
967.692	1055.25
967.865	833.05
968.037	354.64
968.209	642.17
968.382	713.24
968.554	892.03
968.726	404
968.898	312.45
969.071	729.83
969.243	747.24
969.415	401.95
969.587	450.89
969.759	1071.43
969.932	762.6
970.104	414.85
970.276	95.98
970.448	558.82
970.62	522.98
970.792	477.72
970.964	403.38
971.136	1058.32
971.308	746.62
971.48	256.34
971.652	298.32
971.824	975.79
971.996	550.63
972.168	367.34
972.339	407.48
972.511	794.34
972.683	588.31
972.855	587.49
973.027	331.09
973.199	663.47
973.37	778.98
973.542	455.4
973.714	524.21
973.886	535.89
974.057	832.84
974.229	252.86
974.401	269.65
974.572	402.97
974.744	201.66
974.915	209.64
975.087	331.09
975.259	954.69
975.43	451.3
975.602	240.98
975.773	206.16
975.945	436.76
976.116	767.1
976.288	180.77
976.459	473.42
976.63	490.22
976.802	675.76
976.973	235.86
977.145	479.57
977.316	1098.67
977.487	1027.81
977.659	450.89
977.83	320.44
978.001	952.24
978.172	653.44
978.344	212.31
978.515	291.36
978.686	493.49
978.857	948.76
979.028	278.46
979.2	177.29
979.371	878.1
979.542	598.96
979.713	468.1
979.884	-91
980.055	405.02
980.226	512.95
980.397	227.26
980.568	132.44
980.739	821.99
980.91	498
981.081	420.17
981.252	223.16
981.423	556.98
981.594	708.94
981.765	140.63
981.936	352.8
982.106	557.39
982.277	819.53
982.448	159.47
982.619	430.41
982.79	420.79
982.96	710.58
983.131	346.04
983.302	3.62
983.472	456.22
983.643	586.67
983.814	365.7
983.984	189.98
984.155	469.33
984.326	722.05
984.496	316.34
984.667	256.13
984.837	352.18
985.008	864.17
985.178	524.42
985.349	282.14
985.519	480.59
985.69	320.44
985.86	233.2
986.031	139.4
986.201	561.08
986.371	653.85
986.542	98.85
986.712	14.06
986.882	604.7
987.053	611.05
987.223	76.32
987.393	404
987.563	382.29
987.734	633.78
987.904	558.82
988.074	169.3
988.244	517.04
988.414	375.53
988.585	115.03
988.755	284.8
988.925	469.12
989.095	839.8
989.265	122.2
989.435	222.96
989.605	660.61
989.775	658.76
989.945	486.12
990.115	39.66
990.285	441.27
990.455	520.12
990.625	253.68
990.795	72.84
990.965	792.7
991.134	281.53
991.304	73.45
991.474	115.44
991.644	538.96
991.814	831.82
991.984	-3.55
992.153	91.89
992.323	391.09
992.493	462.77
992.662	-79.32
992.832	293.61
993.002	453.56
993.171	578.89
993.341	-62.74
993.511	163.36
993.68	305.49
993.85	604.9
994.019	-5.19
994.189	5.26
994.358	461.34
994.528	316.75
994.697	-161.04
994.867	-27.92
995.036	605.93
995.206	307.33
995.375	18.77
995.544	283.58
995.714	591.39
995.883	386.18
996.052	285.42
996.222	-157.56
996.391	821.58
996.56	503.94
996.73	-32.22
996.899	-90.38
997.068	745.39
997.237	425.29
997.406	-48.4
997.576	-17.48
997.745	551.04
997.914	440.65
998.083	-180.7
998.252	10.17
998.421	446.59
998.59	208.82
998.759	-56.8
998.928	-186.43
999.097	697.88
999.266	509.06
999.435	197.97
999.604	-181.93
999.773	793.31
999.942	332.32
1000.111	-217.97
1000.28	-225.34
1000.448	138.78
1000.617	156.19
1000.786	218.65
1000.955	-128.27
1001.124	535.07
1001.292	982.14
1001.461	-32.63
1001.63	-86.29
1001.798	673.3
1001.967	633.57
1002.136	-151.41
1002.304	-81.78
1002.473	369.79
1002.642	395.8
1002.81	26.56
1002.979	-50.86
1003.147	588.72
1003.316	836.94
1003.484	-59.87
1003.653	-93.66
1003.821	591.18
1003.99	277.64
1004.158	141.24
1004.327	83.69
1004.495	471.17
1004.663	202.27
1004.832	94.75
1005	-213.67
1005.168	445.16
1005.337	355.25
1005.505	-203.43
1005.673	153.12
1005.842	509.67
1006.01	435.53
1006.178	-164.72
1006.346	-104.31
1006.514	428.37
1006.683	702.39
1006.851	-79.32
1007.019	47.65
1007.187	99.05
1007.355	-124.38
1007.523	-255.86
1007.691	-196.06
1007.859	34.95
1008.027	649.96
1008.195	-91.2
1008.363	-237.43
1008.531	437.58
1008.699	252.04
1008.867	-219.82
1009.035	-113.32
1009.203	642.38
1009.37	312.86
1009.538	-102.67
1009.706	447.21
1009.874	345.01
1010.042	266.58
1010.209	-218.59
1010.377	-181.93
1010.545	518.89
1010.713	347.27
1010.88	-178.04
1011.048	-85.26
1011.216	241.8
1011.383	680.47
1011.551	-125.61
1011.718	-222.89
1011.886	533.43
1012.054	342.15
1012.221	-180.7
1012.389	-176.81
1012.556	279.07
1012.724	687.23
1012.891	-10.31
1013.058	-315.87
1013.226	429.8
1013.393	497.38
1013.561	-276.34
1013.728	-314.84
1013.895	546.53
1014.063	409.53
1014.23	-302.14
1014.397	-182.75
1014.565	497.79
1014.732	224.59
1014.899	-200.15
1015.066	-248.69
1015.233	334.37
1015.401	470.76
1015.568	-112.91
1015.735	-15.43
1015.902	348.5
1016.069	575.62
1016.236	-138.92
1016.403	-208.96
1016.57	53.18
1016.737	534.04
1016.904	-114.55
1017.071	-283.3
1017.238	85.74
1017.405	430.21
1017.572	-136.87
1017.739	79.39
1017.906	451.71
1018.073	520.73
1018.24	-242.55
1018.407	-76.05
1018.573	508.65
1018.74	258.39
1018.907	-87.11
1019.074	-310.75
1019.241	522.16
1019.407	292.38
1019.574	-217.36
1019.741	-309.93
1019.907	414.85
1020.074	645.25
1020.241	-415.6
1020.407	-260.37
1020.574	323.72
1020.74	359.35
1020.907	-179.47
1021.073	-248.28
1021.24	806.63
1021.406	568.45
1021.573	-282.89
1021.739	-226.98
1021.906	534.45
1022.072	231.56
1022.239	-169.64
1022.405	-162.47
1022.571	328.43
1022.738	86.15
1022.904	-186.84
1023.07	-90.79
1023.237	308.15
1023.403	529.33
1023.569	-187.46
1023.735	-165.54
1023.902	345.83
1024.068	324.74
1024.234	-316.89
1024.4	-222.07
1024.566	273.95
1024.732	390.48
1024.898	-203.64
1025.065	-368.7
1025.231	423.86
1025.397	172.99
1025.563	-165.34
1025.729	-260.98
1025.895	-199.13
1026.061	34.13
1026.227	-385.09
1026.392	-154.69
1026.558	452.53
1026.724	404.41
1026.89	-248.28
1027.056	-128.68
1027.222	279.27
1027.388	168.07
1027.553	-169.84
1027.719	-271.22
1027.885	652.82
1028.051	374.91
1028.216	-407.41
1028.382	-164.52
1028.548	411.98
1028.713	165.41
1028.879	-329.59
1029.045	-52.91
1029.21	579.92
1029.376	468.92
1029.541	-179.68
1029.707	-169.23
1029.873	421.61
1030.038	488.37
1030.204	-220.22
1030.369	-224.73
1030.534	415.87
1030.7	177.7
1030.865	-152.23
1031.031	-278.8
1031.196	336.41
1031.361	309.38
1031.527	-250.13
1031.692	-216.54
1031.857	-146.09
1032.023	399.9
1032.188	-332.86
1032.353	-189.1
1032.518	534.66
1032.684	297.09
1032.849	-361.74
1033.014	-171.28
1033.179	333.55
1033.344	352.39
1033.509	-128.89
1033.674	-219
1033.839	358.12
1034.004	372.87
1034.17	-197.08
1034.335	-308.08
1034.5	161.11
1034.664	89.43
1034.829	-261.8
1034.994	-157.97
1035.159	242.82
1035.324	339.08
1035.489	-213.26
1035.654	-275.52
1035.819	601.22
1035.984	304.06
1036.148	-145.27
1036.313	-173.74
1036.478	463.59
1036.643	260.02
1036.807	-257.7
1036.972	-296.41
1037.137	651.6
1037.301	220.7
1037.466	-383.45
1037.631	-107.79
1037.795	452.53
1037.96	286.24
1038.124	-37.14
1038.289	-327.54
1038.454	356.28
1038.618	365.29
1038.783	-174.56
1038.947	-141.38
1039.111	231.97
1039.276	174.83
1039.44	-255.86
1039.605	330.27
1039.769	176.88
1039.933	235.86
1040.098	-166.36
1040.262	45.4
1040.426	449.87
1040.591	399.49
1040.755	-274.09
1040.919	-158.58
1041.083	390.89
1041.248	178.92
1041.412	-372.39
1041.576	-301.12
1041.74	152.71
1041.904	356.69
1042.068	-270.81
1042.232	-177.22
1042.397	484.28
1042.561	300.98
1042.725	-447.55
1042.889	-22.39
1043.053	372.87
1043.217	328.02
1043.381	-146.09
1043.544	-362.56
1043.708	429.39
1043.872	10.38
1044.036	-441
1044.2	-356.62
1044.364	481
1044.528	555.96
1044.691	4630.8
1044.855	-334.09
1045.019	411.57
1045.183	380.85
1045.346	-169.64
1045.51	-320.37
1045.674	368.36
1045.837	380.44
1046.001	-190.94
1046.165	-242.75
1046.328	748.67
1046.492	316.75
1046.655	-42.26
1046.819	-150.18
1046.983	154.96
1047.146	281.12
1047.31	-125.81
1047.473	-438.13
1047.636	252.65
1047.8	51.75
1047.963	-175.58
1048.127	-265.69
1048.29	95.78
