Data from USB4F045381__6__11-19-42-973.txt Node

Date: Wed Apr 24 11:19:42 EDT 2024
User: dsalmieri
Spectrometer: USB4F04538
Trigger mode: 4
Integration Time (sec): 1.000000E0
Scans to average: 10
Electric dark correction enabled: true
Nonlinearity correction enabled: false
Boxcar width: 0
XAxis mode: Wavelengths
Number of Pixels in Spectrum: 3648
>>>>>Begin Spectral Data<<<<<
345.52	-1108.26
345.736	-1108.26
345.952	-1108.26
346.168	-1125.87
346.384	-1118.5
346.6	-175.41
346.816	-266.54
347.032	-169.26
347.248	418.5
347.464	-246.27
347.68	-166.6
347.896	71.78
348.112	357.06
348.328	-91.03
348.544	-81.41
348.76	73.62
348.975	275.55
349.191	-258.97
349.407	-286.61
349.623	96.36
349.839	-52.33
350.055	-220.05
350.27	-46.18
350.486	156.77
350.702	285.79
350.918	188.93
351.133	-206.33
351.349	108.24
351.565	447.79
351.781	-341.5
351.996	-32.46
352.212	198.76
352.428	-99.43
352.644	-290.71
352.859	-277.19
353.075	279.65
353.291	117.86
353.506	-186.06
353.722	-329.01
353.938	-69.73
354.153	433.66
354.369	89.8
354.584	-280.26
354.8	260.81
355.016	-321.02
355.231	-321.63
355.447	-142.44
355.662	195.48
355.878	752.94
356.093	-434.68
356.309	-62.36
356.524	-226.4
356.74	268.39
356.955	-316.31
357.171	-123.8
357.386	181.76
357.602	-232.75
357.817	-135.68
358.033	-229.07
358.248	356.45
358.464	193.43
358.679	-201.21
358.895	-399.87
359.11	-0.1
359.325	219.85
359.541	231.52
359.756	-68.09
359.972	-300.13
360.187	214.52
360.402	-257.53
360.618	-207.56
360.833	1049.69
361.048	145.51
361.264	-228.86
361.479	-116.84
361.694	12.6
361.909	206.95
362.125	-287.84
362.34	-206.33
362.555	189.74
362.77	107.83
362.986	-353.58
363.201	-248.11
363.416	200.6
363.631	25.29
363.847	-288.05
364.062	-224.97
364.277	139.57
364.492	71.17
364.707	-199.57
364.922	-403.55
365.138	216.37
365.353	342.73
365.568	-364.03
365.783	-218.62
365.998	118.68
366.213	529.71
366.428	-309.96
366.643	31.64
366.858	258.97
367.073	249.14
367.288	-163.74
367.503	-307.3
367.718	47
367.933	342.32
368.148	-348.05
368.363	-130.35
368.578	23.45
368.793	419.94
369.008	-201.21
369.223	-329.62
369.438	246.06
369.653	295.83
369.868	-340.68
370.083	-321.84
370.298	98.61
370.513	385.73
370.728	-25.5
370.943	-237.05
371.157	-171.93
371.372	603.84
371.587	-379.8
371.802	-371.19
372.017	38.4
372.232	437.14
372.446	-87.76
372.661	-317.54
372.876	184.21
373.091	200.19
373.306	-176.02
373.52	-348.05
373.735	-132.61
373.95	437.55
374.165	-211.25
374.379	-214.12
374.594	-115.4
374.809	179.5
375.023	-14.23
375.238	-289.07
375.453	240.33
375.667	-258.76
375.882	-251.39
376.097	-276.17
376.311	7.27
376.526	65.43
376.741	-317.95
376.955	83.86
377.17	498.58
377.384	677.57
377.599	-86.94
377.813	-374.47
378.028	581.93
378.242	214.73
378.457	-133.63
378.672	-401.71
378.886	31.64
379.101	-26.73
379.315	-443.69
379.53	-225.17
379.744	245.86
379.958	195.27
380.173	-253.85
380.387	-288.25
380.602	172.95
380.816	-124.62
381.031	-254.46
381.245	-206.13
381.459	179.09
381.674	1125.67
381.888	-321.63
382.103	66.87
382.317	-159.02
382.531	429.77
382.746	-137.73
382.96	-265.93
383.174	-95.54
383.388	449.84
383.603	-6.86
383.817	-379.18
384.031	124.62
384.246	410.31
384.46	-58.88
384.674	353.58
384.888	1.54
385.103	63.79
385.317	-391.47
385.531	-59.9
385.745	411.95
385.959	319.59
386.174	-278.63
386.388	-318.56
386.602	21.61
386.816	-130.15
387.03	-141.82
387.244	-181.14
387.458	108.24
387.672	336.17
387.887	-412.97
388.101	-325.12
388.315	318.36
388.529	120.93
388.743	-261.22
388.957	-314.88
389.171	326.14
389.385	-176.02
389.599	-259.17
389.813	-36.76
390.027	177.46
390.241	620.43
390.455	-221.28
390.669	-184.01
390.883	-70.76
391.097	526.23
391.311	6.45
391.525	-246.06
391.738	269.41
391.952	207.56
392.166	-107.21
392.38	-360.95
392.594	253.44
392.808	274.53
393.022	-151.04
393.236	-226.61
393.449	154.93
393.663	211.86
393.877	-348.87
394.091	-145.92
394.305	54.17
394.518	-115.2
394.732	-349.9
394.946	-196.3
395.16	495.51
395.373	101.07
395.587	-305.45
395.801	-265.11
396.015	304.84
396.228	222.31
396.442	-370.17
396.656	-427.51
396.869	314.88
397.083	486.49
397.297	-142.23
397.51	-230.09
397.724	297.47
397.938	121.75
398.151	-400.89
398.365	-400.28
398.578	223.13
398.792	378.77
399.005	-72.6
399.219	-266.54
399.433	132.81
399.646	212.89
399.86	-51.3
400.073	-32.46
400.287	218.62
400.5	-1.74
400.714	-39.63
400.927	-159.02
401.141	286
401.354	1193.04
401.567	174.59
401.781	-350.1
401.994	221.28
402.208	604.66
402.421	-176.43
402.635	-196.3
402.848	-40.45
403.061	293.99
403.275	-130.35
403.488	-326.55
403.701	405.81
403.915	304.02
404.128	-31.44
404.341	-271.05
404.555	278.01
404.768	-33.89
404.981	-26.32
405.195	-263.06
405.408	417.89
405.621	239.92
405.834	-27.34
406.048	-333.51
406.261	390.65
406.474	400.48
406.687	-280.88
406.9	-105.16
407.114	74.85
407.327	228.45
407.54	-401.5
407.753	-405.81
407.966	-173.77
408.179	177.87
408.392	-284.57
408.605	-410.11
408.819	150.01
409.032	221.49
409.245	-266.13
409.458	-16.28
409.671	201.01
409.884	273.71
410.097	-347.85
410.31	-62.77
410.523	259.58
410.736	-14.44
410.949	-151.45
411.162	-205.92
411.375	338.84
411.588	258.35
411.801	-61.34
412.014	-213.91
412.227	6.86
412.44	-39.01
412.653	-266.75
412.865	-49.66
413.078	334.95
413.291	216.37
413.504	-143.46
413.717	-305.66
413.93	285.18
414.143	-125.85
414.356	-152.27
414.568	-420.14
414.781	255.28
414.994	155.75
415.207	-135.06
415.42	-168.04
415.632	228.04
415.845	548.55
416.058	-389.83
416.271	-343.96
416.483	110.49
416.696	491.82
416.909	-283.54
417.121	-280.26
417.334	128.1
417.547	448.81
417.759	-282.93
417.972	-309.76
418.185	-62.57
418.397	233.57
418.61	-247.7
418.823	-276.17
419.035	440.42
419.248	45.77
419.46	-148.17
419.673	-118.07
419.885	127.69
420.098	50.89
420.311	-221.49
420.523	-484.65
420.736	237.67
420.948	76.49
421.161	-233.98
421.373	-440.62
421.586	-14.03
421.798	-100.66
422.01	-411.74
422.223	-86.94
422.435	-85.09
422.648	306.27
422.86	-259.38
423.073	-235.41
423.285	229.47
423.497	-256.51
423.71	-286
423.922	-269
424.134	385.33
424.347	467.65
424.559	-18.12
424.771	95.13
424.984	66.25
425.196	177.25
425.408	-414.61
425.621	-352.76
425.833	295.01
426.045	405.4
426.257	-338.02
426.47	-195.48
426.682	98.4
426.894	178.48
427.106	-258.15
427.318	-189.33
427.531	-56.63
427.743	222.72
427.955	-203.88
428.167	296.85
428.379	130.56
428.591	8.29
428.804	-123.19
429.016	-299.31
429.228	3.38
429.44	215.14
429.652	-8.7
429.864	-348.87
430.076	41.88
430.288	46.39
430.5	-187.9
430.712	-117.04
430.924	308.32
431.136	194.45
431.348	-355.63
431.56	-233.98
431.772	46.8
431.984	-52.94
432.196	-308.53
432.408	-216.37
432.62	35.12
432.832	204.69
433.044	62.77
433.256	-132.2
433.468	241.76
433.679	-247.09
433.891	-317.95
434.103	-6.45
434.315	300.74
434.527	275.35
434.739	-78.95
434.95	-192
435.162	289.48
435.374	-60.72
435.586	-163.53
435.798	-212.89
436.009	-151.45
436.221	-9.93
436.433	-185.03
436.645	-167.63
436.856	2.97
437.068	407.85
437.28	-252.82
437.491	104.75
437.703	302.38
437.915	214.12
438.126	-145.92
438.338	162.51
438.55	90.83
438.761	204.9
438.973	-153.29
439.184	-123.39
439.396	131.38
439.608	325.73
439.819	-214.12
440.031	-28.98
440.242	333.51
440.454	354.61
440.665	-103.52
440.877	-14.85
441.088	346.82
441.3	121.34
441.511	-309.96
441.723	-168.24
441.934	282.52
442.146	232.34
442.357	56.22
442.569	191.38
442.78	307.5
442.991	682.08
443.203	281.49
443.414	-175.61
443.626	672.04
443.837	75.47
444.048	-168.65
444.26	-255.28
444.471	335.97
444.682	414.41
444.894	-196.3
445.105	-211.66
445.316	525
445.528	428.74
445.739	78.54
445.95	32.26
446.161	345.39
446.373	512.5
446.584	-17.31
446.795	-59.7
447.006	512.3
447.217	638.25
447.429	-157.39
447.64	-124.62
447.851	665.49
448.062	385.73
448.273	-164.55
448.484	-51.51
448.695	463.15
448.907	382.05
449.118	99.43
449.329	256.92
449.54	205.1
449.751	124.62
449.962	-33.07
450.173	-33.28
450.384	566.98
450.595	619.82
450.806	-48.64
451.017	26.52
451.228	618.59
451.439	548.75
451.65	-1.33
451.861	-265.31
452.072	105.16
452.283	280.06
452.494	143.87
452.705	-98.2
452.915	721.4
453.126	374.68
453.337	-1.13
453.548	-121.34
453.759	573.12
453.97	701.12
454.181	229.88
454.391	-58.88
454.602	388.19
454.813	427.92
455.024	-6.04
455.235	-94.51
455.445	432.22
455.656	351.74
455.867	91.44
456.078	-102.09
456.288	198.76
456.499	454.75
456.71	-152.68
456.921	198.96
457.131	318.56
457.342	293.78
457.553	-2.97
457.763	-44.95
457.974	353.17
458.184	448.4
458.395	-131.99
458.606	-118.47
458.816	554.69
459.027	701.74
459.237	59.49
459.448	-255.07
459.659	559.81
459.869	881.75
460.08	-244.02
460.29	23.04
460.501	691.09
460.711	114.58
460.922	-239.31
461.132	-113.56
461.343	934.59
461.553	-52.53
461.764	-162.71
461.974	-99.63
462.184	484.45
462.395	344.16
462.605	-43.72
462.816	-161.69
463.026	287.84
463.236	471.34
463.447	-177.87
463.657	-118.88
463.867	475.44
464.078	183.19
464.288	-59.7
464.498	-85.3
464.709	266.75
464.919	280.67
465.129	-15.26
465.339	-192
465.55	357.47
465.76	473.8
465.97	-83.86
466.18	-134.24
466.391	479.74
466.601	340.88
466.811	-27.14
467.021	-248.11
467.231	387.58
467.441	512.09
467.651	-97.38
467.862	-375.9
468.072	205.72
468.282	451.47
468.492	-147.97
468.702	-26.52
468.912	216.78
469.122	868.65
469.332	198.76
469.542	-156.16
469.752	505.34
469.962	275.76
470.172	-206.33
470.382	-173.36
470.592	471.75
470.802	487.52
471.012	33.89
471.222	-141.21
471.432	395.77
471.642	444.72
471.852	17.1
472.062	-183.81
472.272	207.36
472.482	-31.23
472.691	-192.41
472.901	-223.74
473.111	234.59
473.321	754.57
473.531	-162.3
473.741	7.88
473.95	404.58
474.16	450.45
474.37	5.43
474.58	-216.57
474.79	724.26
474.999	434.07
475.209	-124.82
475.419	-73.42
475.628	250.77
475.838	579.68
476.048	27.75
476.258	-205.1
476.467	542.4
476.677	130.35
476.886	161.89
477.096	10.96
477.306	134.45
477.515	585.41
477.725	72.81
477.935	36.15
478.144	691.29
478.354	151.86
478.563	-23.45
478.773	-125.23
478.982	509.64
479.192	538.1
479.401	48.64
479.611	-96.36
479.82	78.74
480.03	434.89
480.239	-123.19
480.449	-166.19
480.658	713.21
480.868	217.19
481.077	93.08
481.287	10.96
481.496	412.36
481.705	689.24
481.915	279.65
482.124	258.76
482.333	483.83
482.543	778.74
482.752	129.74
482.961	-44.75
483.171	543.22
483.38	349.69
483.589	159.64
483.799	-62.57
484.008	340.27
484.217	490.59
484.426	68.5
484.636	-90.42
484.845	635.59
485.054	63.59
485.263	380.61
485.472	62.57
485.682	735.32
485.891	424.44
486.1	-107.42
486.309	-16.08
486.518	577.42
486.727	838.75
486.936	-23.45
487.146	219.03
487.355	770.14
487.564	234.8
487.773	119.91
487.982	89.8
488.191	321.63
488.4	480.35
488.609	90.62
488.818	126.87
489.027	987.22
489.236	798.61
489.445	120.73
489.654	53.35
489.863	767.68
490.072	572.92
490.281	540.97
490.49	183.81
490.698	860.66
490.907	944.22
491.116	181.35
491.325	23.65
491.534	838.13
491.743	546.3
491.952	280.06
492.16	225.79
492.369	686.79
492.578	834.24
492.787	291.12
492.996	269.41
493.204	423.01
493.413	1006.68
493.622	44.75
493.831	8.7
494.039	1095.77
494.248	366.69
494.457	224.56
494.665	61.34
494.874	777.92
495.083	1172.36
495.291	231.11
495.5	177.25
495.709	847.14
495.917	665.28
496.126	363.41
496.335	243.2
496.543	565.75
496.752	740.24
496.96	561.66
497.169	117.25
497.377	689.04
497.586	913.5
497.794	410.52
498.003	73.62
498.211	667.13
498.42	1026.95
498.628	410.72
498.837	273.71
499.045	836.7
499.254	716.89
499.462	349.9
499.671	290.3
499.879	1282.95
500.087	1032.89
500.296	265.31
500.504	425.26
500.713	824.41
500.921	1270.46
501.129	356.45
501.338	366.28
501.546	877.04
501.754	804.54
501.962	431.81
502.171	314.67
502.379	899.57
502.587	1176.25
502.795	510.25
503.004	464.17
503.212	928.45
503.42	1107.23
503.628	453.73
503.837	563.5
504.045	1009.34
504.253	1354.83
504.461	435.3
504.669	309.35
504.877	1104.57
505.085	1197.14
505.294	327.37
505.502	699.48
505.71	1017.74
505.918	1036.58
506.126	418.71
506.334	506.77
506.542	870.08
506.75	976.16
506.958	707.27
507.166	583.57
507.374	780.38
507.582	1370.81
507.79	723.44
507.998	500.22
508.206	1181.78
508.414	1117.06
508.622	529.91
508.83	621.87
509.037	1151.27
509.245	873.77
509.453	536.67
509.661	475.23
509.869	1202.46
510.077	943.6
510.285	777.31
510.492	304.84
510.7	1553.49
510.908	860.66
511.116	702.15
511.324	588.48
511.531	890.97
511.739	1101.7
511.947	829.73
512.155	977.6
512.362	1108.87
512.57	723.65
512.778	571.69
512.985	472.57
513.193	1240.56
513.401	1469.52
513.608	774.44
513.816	680.23
514.024	1214.14
514.231	1341.32
514.439	701.53
514.646	702.76
514.854	1335.79
515.061	1380.64
515.269	741.67
515.477	734.09
515.684	918.82
515.892	1363.64
516.099	580.91
516.307	586.03
516.514	1325.75
516.722	1572.12
516.929	775.46
517.136	639.07
517.344	1469.72
517.551	1281.52
517.759	702.97
517.966	818.68
518.173	1085.73
518.381	1153.11
518.588	882.57
518.796	714.23
519.003	1401.32
519.21	1270.05
519.418	805.16
519.625	1147.37
519.832	1231.14
520.039	1334.15
520.247	630.26
520.454	842.64
520.661	1486.93
520.868	1357.29
521.076	843.05
521.283	915.75
521.49	1849.83
521.697	1402.96
521.904	877.86
522.112	871.31
522.319	1524.61
522.526	1369.99
522.733	791.85
522.94	825.02
523.147	1242.2
523.354	1421.6
523.561	740.85
523.768	1008.73
523.975	1602.23
524.183	1334.97
524.39	1073.03
524.597	786.11
524.804	1298.31
525.011	1151.88
525.218	869.87
525.425	901
525.632	1706.67
525.838	1118.5
526.045	916.77
526.252	949.13
526.459	2327
526.666	2351.58
526.873	938.28
527.08	912.88
527.287	1706.06
527.494	1567.41
527.701	859.02
527.907	853.9
528.114	1480.78
528.321	1367.12
528.528	1008.93
528.735	983.95
528.941	1254.28
529.148	1252.03
529.355	1109.69
529.562	995.01
529.768	1895.7
529.975	1309.16
530.182	1043.34
530.388	926.81
530.595	1666.94
530.802	1146.96
531.008	1222.13
531.215	1017.74
531.422	2161.32
531.628	2222.97
531.835	1114.2
532.042	1160.28
532.248	1312.85
532.455	1546.32
532.661	1082.86
532.868	1009.75
533.074	1567.82
533.281	1766.89
533.487	1058.29
533.694	1011.59
533.9	1301.59
534.107	1588.71
534.313	1049.48
534.52	962.03
534.726	1666.94
534.933	2011.62
535.139	1011.8
535.345	989.07
535.552	1694.8
535.758	1558.61
535.965	1170.72
536.171	1106.21
536.377	1675.75
536.584	1952.84
536.79	1132.01
536.996	1266.16
537.203	1646.87
537.409	1717.73
537.615	1192.02
537.821	1152.29
538.028	1821.98
538.234	1693.98
538.44	1178.71
538.646	1254.28
538.853	1660.8
539.059	1514.17
539.265	1704.63
539.471	950.97
539.677	1849.83
539.883	1450.47
540.09	1171.95
540.296	1605.71
540.502	1580.72
540.708	1462.76
540.914	1469.93
541.12	1233.18
541.326	1807.64
541.532	1625.98
541.738	1354.42
541.944	1297.49
542.15	1941.58
542.356	1582.98
542.562	1157.41
542.768	1311.62
542.974	2211.7
543.18	2169.11
543.386	1261.24
543.592	1095.97
543.798	2116.27
544.004	1979.46
544.21	1223.97
544.415	1390.67
544.621	1847.58
544.827	2024.31
545.033	1196.73
545.239	1598.54
545.445	1471.36
545.651	1782.24
545.856	1295.03
546.062	1253.66
546.268	1580.52
546.474	1758.28
546.679	1371.01
546.885	1396.61
547.091	1589.53
547.297	2233.21
547.502	1416.89
547.708	1218.85
547.914	1548.78
548.119	1952.02
548.325	1255.92
548.531	1209.43
548.736	2199.83
548.942	1582.77
549.147	1338.86
549.353	1596.49
549.559	2034.76
549.764	1923.96
549.97	1323.3
550.175	1392.52
550.381	1956.53
550.586	1618.82
550.792	1420.57
550.997	1405.01
551.203	1953.05
551.408	1998.92
551.614	1265.34
551.819	1343.16
552.025	2274.78
552.23	2160.1
552.435	1318.58
552.641	1622.09
552.846	1642.78
553.052	2210.88
553.257	1649.74
553.462	1448.22
553.668	1655.68
553.873	2062.61
554.078	1368.56
554.283	1421.39
554.489	1970.25
554.694	1837.34
554.899	1377.57
555.105	1651.17
555.31	2055.44
555.515	2057.29
555.72	1551.44
555.925	2008.55
556.131	2109.72
556.336	1780.4
556.541	1445.76
556.746	1358.72
556.951	2245.9
557.156	2199.01
557.361	1615.54
557.567	1700.53
557.772	2312.05
557.977	2102.96
558.182	1500.85
558.387	1504.75
558.592	1768.32
558.797	2306.32
559.002	1622.09
559.207	1662.23
559.412	1989.5
559.617	2452.14
559.822	1533.21
560.027	1464.4
560.232	2031.28
560.437	2163.58
560.642	1405.42
560.847	1477.1
561.051	1925.81
561.256	2041.72
561.461	1601.61
561.666	1465.63
561.871	2035.99
562.076	2187.74
562.281	1664.28
562.485	1458.87
562.69	2200.64
562.895	2190.4
563.1	1575.81
563.305	1469.72
563.509	2292.6
563.714	2498.42
563.919	1537.31
564.123	1603.05
564.328	1996.87
564.533	2319.02
564.737	1676.77
564.942	1607.55
565.147	2409.13
565.351	2437.19
565.556	1738.21
565.761	1714.46
565.965	2140.84
566.17	1833.85
566.374	1665.92
566.579	1587.28
566.784	2119.34
566.988	1952.64
567.193	1513.55
567.397	1739.03
567.602	1775.49
567.806	2063.43
568.011	1677.59
568.215	1709.34
568.42	2028.21
568.624	2047.46
568.828	1667.56
569.033	1884.64
569.237	2297.1
569.442	2238.12
569.646	1533.42
569.85	1688.24
570.055	2062.2
570.259	2177.91
570.463	1969.63
570.668	1738.83
570.872	2076.74
571.076	2066.3
571.281	1889.56
571.485	1833.85
571.689	2150.88
571.893	2364.69
572.098	1895.5
572.302	1705.65
572.506	2300.79
572.71	2229.73
572.914	1740.26
573.119	1708.72
573.323	2517.88
573.527	2514.6
573.731	1760.33
573.935	1679.23
574.139	2225.22
574.343	2006.29
574.547	1798.63
574.751	1879.11
574.955	2417.73
575.159	2420.6
575.364	1808.87
575.568	1716.91
575.772	2211.7
575.976	2408.1
576.18	1737.8
576.383	1718.35
576.587	2482.65
576.791	2342.77
576.995	1632.95
577.199	1681.69
577.403	2358.95
577.607	2436.57
577.811	1717.73
578.015	1960.83
578.219	2297.51
578.422	2389.47
578.626	1935.23
578.83	2116.88
579.034	2568.87
579.238	2298.74
579.442	1829.55
579.645	2299.97
579.849	2222.76
580.053	2353.83
580.257	1934.61
580.46	1989.29
580.664	2532.01
580.868	2420.39
581.071	2138.18
581.275	1995.85
581.479	2022.06
581.682	2539.17
581.886	1837.54
582.09	2034.55
582.293	2514.8
582.497	2543.47
582.7	2171.36
582.904	1864.37
583.107	2350.15
583.311	2255.74
583.515	1994.82
583.718	2058.93
583.922	2529.75
584.125	2882.82
584.329	1927.04
584.532	2121.8
584.735	2719.4
584.939	2457.87
585.142	1823.82
585.346	1875.43
585.549	2467.09
585.753	2278.26
585.956	1991.96
586.159	2194.5
586.363	2785.54
586.566	2537.13
586.769	1973.53
586.973	1904.1
587.176	2526.27
587.379	2635.63
587.582	2345.44
587.786	2282.97
587.989	2449.06
588.192	3146.4
588.395	2134.91
588.599	2400.53
588.802	2513.98
589.005	2656.52
589.208	2110.33
589.411	2083.3
589.615	2648.74
589.818	2872.38
590.021	2393.15
590.224	2204.54
590.427	2756.26
590.63	2625.19
590.833	1916.59
591.036	2009.77
591.239	2457.46
591.442	2375.34
591.645	2361.82
591.848	2102.55
592.051	2563.75
592.254	2707.31
592.457	2271.71
592.66	2256.55
592.863	2452.75
593.066	2677.41
593.269	2157.23
593.472	2217.44
593.675	2347.48
593.878	2712.23
594.081	2255.53
594.284	2078.79
594.486	2712.84
594.689	2590.58
594.892	2309.39
595.095	2234.03
595.298	2726.56
595.5	2427.35
595.703	2325.78
595.906	2357.72
596.109	2884.26
596.311	2767.32
596.514	1913.11
596.717	2329.05
596.92	2930.13
597.122	2780.63
597.325	1997.28
597.528	2127.12
597.73	2959.01
597.933	2662.46
598.136	2219.28
598.338	1948.13
598.541	2757.49
598.743	2942.42
598.946	2289.32
599.148	2308.98
599.351	2929.31
599.554	2844.94
599.756	2416.91
599.959	2287.48
600.161	2905.97
600.363	3176.5
600.566	2526.89
600.768	2292.8
600.971	3010.21
601.173	2814.22
601.376	2288.5
601.578	2339.7
601.78	2739.47
601.983	3300.4
602.185	2229.32
602.388	2524.84
602.59	2769.57
602.792	2579.93
602.995	2394.18
603.197	2291.78
603.399	2908.63
603.601	2831.01
603.804	2315.13
604.006	2310.21
604.208	2596.11
604.41	2255.94
604.613	2509.68
604.815	2227.06
605.017	3221.97
605.219	2541.02
605.421	2834.08
605.623	2331.51
605.826	3038.47
606.028	3110.35
606.23	2336.63
606.432	2336.22
606.634	3046.25
606.836	2998.94
607.038	2208.02
607.24	2494.32
607.442	2811.96
607.644	2730.04
607.846	2482.04
608.048	2240.99
608.25	3072.26
608.452	2522.59
608.654	2424.08
608.856	2097.84
609.058	2626.83
609.26	2980.72
609.462	2497.81
609.664	2431.45
609.866	3016.35
610.067	2901.87
610.269	2515.62
610.471	2382.71
610.673	2643.42
610.875	2928.9
611.077	2179.96
611.278	2430.02
611.48	2805.61
611.682	3124.48
611.884	2478.76
612.085	2445.79
612.287	2506.61
612.489	2838.59
612.69	2268.64
612.892	2421.83
613.094	3069.39
613.295	2840.84
613.497	2266.18
613.699	2399.5
613.9	3145.58
614.102	2963.92
614.304	2408.72
614.505	2248.77
614.707	2711.41
614.908	2793.53
615.11	2215.19
615.311	2482.65
615.513	2908.01
615.714	2892.45
615.916	2225.22
616.117	2435.75
616.319	2732.3
616.52	2956.35
616.722	2348.1
616.923	2359.57
617.124	3053.62
617.326	2897.36
617.527	2491.66
617.729	2572.56
617.93	2944.47
618.131	2954.3
618.333	2338.88
618.534	2433.29
618.735	2725.95
618.937	3135.34
619.138	2264.54
619.339	2266.18
619.54	2834.9
619.742	2708.34
619.943	2535.9
620.144	2426.74
620.345	2980.1
620.546	2940.99
620.748	2358.34
620.949	2456.44
621.15	2946.72
621.351	2808.48
621.552	2324.55
621.753	2174.23
621.954	2376.36
622.155	3197.6
622.356	2244.06
622.558	2570.71
622.759	2755.23
622.96	3167.08
623.161	2415.89
623.362	2336.22
623.563	2778.17
623.764	2800.49
623.965	2362.84
624.166	2605.53
624.366	2657.96
624.567	2868.08
624.768	2106.85
624.969	2349.74
625.17	2607.99
625.371	2819.95
625.572	2486.34
625.773	2290.76
625.973	2921.12
626.174	2974.16
626.375	2462.99
626.576	2450.5
626.777	2884.26
626.977	3272.35
627.178	2433.5
627.379	2488.79
627.58	2686.22
627.78	2753.6
627.981	2391.93
628.182	2533.23
628.382	2962.28
628.583	2397.66
628.784	2251.23
628.984	2566
629.185	2896.95
629.386	2974.98
629.586	2503.74
629.787	2306.32
629.987	2929.31
630.188	2753.6
630.388	2409.13
630.589	2545.32
630.79	3388.88
630.99	2792.1
631.191	2460.53
631.391	2555.56
631.591	2921.33
631.792	3119.16
631.992	2617
632.193	2448.04
632.393	3147.22
632.594	2738.03
632.794	2359.98
632.994	2526.48
633.195	2762.4
633.395	2678.85
633.595	2352.4
633.796	2589.55
633.996	2629.69
634.196	3004.47
634.397	2240.58
634.597	2491.25
634.797	2521.36
634.997	3149.26
635.198	2630.1
635.398	2341.95
635.598	2840.64
635.798	3008.57
635.998	2809.1
636.199	2316.76
636.399	2549.21
636.599	2511.32
636.799	2356.5
636.999	2670.65
637.199	2873.4
637.399	3024.13
637.599	2306.52
637.799	2489.2
637.999	2579.11
638.199	3024.34
638.399	2383.53
638.599	2335.4
638.799	2883.23
638.999	3129.19
639.199	2526.27
639.399	2442.92
639.599	2969.25
639.799	2417.73
639.999	2242.63
640.199	2247.13
640.399	2718.58
640.599	2804.8
640.799	2444.56
640.998	2573.78
641.198	2898.39
641.398	2790.05
641.598	2467.7
641.798	2344.62
641.997	3681.53
642.197	2605.53
642.397	2461.56
642.597	2260.45
642.796	2796.81
642.996	2912.72
643.196	2565.39
643.395	2129.17
643.595	2673.93
643.795	2242.42
643.994	2306.93
644.194	2324.14
644.394	2885.28
644.593	2822.41
644.793	2140.64
644.992	2459.3
645.192	2832.03
645.392	2212.93
645.591	2481.63
645.791	2348.51
645.99	2905.76
646.19	2599.59
646.389	2358.13
646.589	2333.56
646.788	2744.79
646.987	2750.32
647.187	2594.26
647.386	2560.47
647.586	2648.54
647.785	2959.62
647.984	2301.61
648.184	2396.64
648.383	2449.68
648.582	2473.23
648.782	2274.78
648.981	2434.52
649.18	2407.69
649.38	2617
649.579	2337.45
649.778	2195.52
649.977	2783.7
650.177	2680.89
650.376	2225.22
650.575	2128.76
650.774	2909.45
650.973	2720.01
651.173	2084.12
651.372	2346.87
651.571	2607.37
651.77	2858.25
651.969	2290.76
652.168	2376.57
652.367	2304.89
652.566	2558.83
652.765	2225.02
652.964	2638.91
653.163	3004.88
653.362	2523
653.561	2237.71
653.76	2313.28
653.959	2545.73
654.158	2752.37
654.357	2507.02
654.556	2269.46
654.755	2767.11
654.954	2730.66
655.153	2267.2
655.352	2386.6
655.551	2863.16
655.749	2460.53
655.948	2352.4
656.147	2390.49
656.346	2682.33
656.545	2567.03
656.743	2340.73
656.942	2353.22
657.141	2604.91
657.34	2383.73
657.538	2302.02
657.737	2290.96
657.936	2607.17
658.135	2592.22
658.333	2275.19
658.532	2439.85
658.731	2990.14
658.929	2788.62
659.128	2556.17
659.326	2186.51
659.525	2873.81
659.724	2569.28
659.922	2031.07
660.121	2082.68
660.319	2614.54
660.518	2387.01
660.716	2185.9
660.915	2167.47
661.113	2900.03
661.312	2265.36
661.51	2359.36
661.709	2068.55
661.907	2685.19
662.105	2842.89
662.304	2205.36
662.502	2299.36
662.701	2803.57
662.899	2422.64
663.097	2642.6
663.296	2082.07
663.494	2805
663.692	2911.29
663.891	2109.51
664.089	2024.11
664.287	2581.16
664.485	2792.1
664.684	2118.11
664.882	2294.24
665.08	2496.58
665.278	2482.65
665.476	2084.12
665.675	2517.88
665.873	2889.79
666.071	2769.16
666.269	2122.62
666.467	2458.28
666.665	2570.1
666.863	2458.07
667.061	2321.88
667.259	2174.23
667.457	2427.15
667.655	2706.08
667.853	2015.1
668.051	2293.21
668.249	2248.57
668.447	2928.29
668.645	2077.36
668.843	2416.3
669.041	2649.76
669.239	2339.09
669.437	2276.42
669.635	2322.29
669.833	2399.5
670.031	2583.61
670.229	2231.57
670.426	2234.03
670.624	2321.07
670.822	2270.07
671.02	2091.08
671.218	2185.49
671.415	2186.92
671.613	2437.8
671.811	2266.59
672.009	2145.55
672.206	2623.76
672.404	2370.83
672.602	2440.05
672.799	2245.5
672.997	2573.38
673.195	2605.12
673.392	2260.45
673.59	1964.72
673.788	2578.29
673.985	1854.74
674.183	2249.8
674.38	2061.18
674.578	2660.82
674.775	2223.99
674.973	1999.74
675.17	1950.79
675.368	2701.99
675.565	2666.97
675.763	2123.64
675.96	2062.61
676.158	2621.09
676.355	2355.68
676.553	2022.47
676.75	2123.44
676.947	2379.23
677.145	2290.14
677.342	2215.59
677.539	2248.16
677.737	2514.6
677.934	2859.89
678.131	2300.59
678.329	2026.77
678.526	2908.22
678.723	2593.04
678.92	2190.2
679.118	2170.33
679.315	2128.76
679.512	2769.98
679.709	2188.36
679.906	2128.97
680.104	2712.64
680.301	2403.39
680.498	1929.29
680.695	2014.07
680.892	2287.68
681.089	2310.62
681.286	2242.42
681.483	1928.88
681.68	2492.28
681.877	2622.53
682.075	2194.5
682.272	2327
682.469	2588.73
682.665	2338.27
682.862	2023.7
683.059	1961.85
683.256	2488.59
683.453	2481.01
683.65	2287.27
683.847	2193.89
684.044	2491.05
684.241	2244.68
684.438	2339.7
684.635	2033.33
684.831	2992.39
685.028	2927.67
685.225	2084.93
685.422	2450.7
685.619	2448.24
685.815	2463.19
686.012	2313.9
686.209	2234.23
686.405	2253.07
686.602	2606.76
686.799	2116.06
686.996	2138.8
687.192	2321.27
687.389	3083.11
687.586	2184.47
687.782	2231.98
687.979	2947.74
688.175	2769.57
688.372	2309.6
688.568	2308.98
688.765	2437.8
688.962	2821.59
689.158	2430.43
689.355	2080.84
689.551	2703.83
689.748	2469.95
689.944	2372.47
690.14	2192.86
690.337	2793.94
690.533	2614.95
690.73	2499.65
690.926	2340.93
691.123	2676.59
691.319	2527.5
691.515	2192.25
691.712	2526.68
691.908	2696.87
692.104	2636.86
692.301	2414.45
692.497	2133.06
692.693	2819.13
692.889	2683.97
693.086	2477.12
693.282	2164.4
693.478	2635.22
693.674	3082.3
693.87	2387.42
694.067	2174.64
694.263	2651.2
694.459	2533.23
694.655	2558.02
694.851	2444.76
695.047	2786.16
695.243	2812.37
695.439	2498.42
695.635	2264.54
695.831	2727.59
696.027	2575.01
696.224	2265.36
696.42	2795.17
696.615	2930.13
696.811	2802.34
697.007	2143.71
697.203	2306.32
697.399	2771
697.595	2813.81
697.791	2244.06
697.987	2466.27
698.183	2355.88
698.379	2438.62
698.575	2359.16
698.77	2411.38
698.966	2775.92
699.162	2941.19
699.358	2356.5
699.554	2445.58
699.749	2818.52
699.945	2791.07
700.141	2474.05
700.337	2441.28
700.532	2504.97
700.728	2406.67
700.924	2208.84
701.119	2096.81
701.315	2736.8
701.511	2558.02
701.706	2424.28
701.902	2098.86
702.097	2675.57
702.293	2728.82
702.489	2336.43
702.684	2206.99
702.88	2661.44
703.075	2516.24
703.271	2355.68
703.466	2196.75
703.662	2462.78
703.857	2631.33
704.053	2224.81
704.248	2306.12
704.443	2829.37
704.639	2731.07
704.834	2369.4
705.03	2259.01
705.225	2735.57
705.42	2863.37
705.616	2436.98
705.811	2210.68
706.006	2517.67
706.202	2498.42
706.397	2442.92
706.592	2126.1
706.787	2719.6
706.983	2519.72
707.178	2570.1
707.373	2388.24
707.568	2730.25
707.763	2816.47
707.959	2159.28
708.154	2257.78
708.349	2583
708.544	2703.22
708.739	2537.74
708.934	2210.68
709.129	2806.43
709.324	2915.18
709.519	2254.92
709.714	2134.09
709.909	2807.87
710.104	2524.43
710.299	2273.76
710.494	2398.27
710.689	2705.26
710.884	2575.83
711.079	2362.64
711.274	2463.4
711.469	2799.06
711.664	2684.17
711.859	2260.04
712.054	2344.41
712.249	2739.06
712.443	2746.02
712.638	2158.05
712.833	2199.62
713.028	2597.75
713.223	2478.55
713.417	2591.81
713.612	2229.32
713.807	2801.72
714.002	3296.1
714.196	2493.3
714.391	2229.32
714.586	2768.14
714.78	2594.88
714.975	2243.45
715.17	2255.94
715.364	2490.02
715.559	2764.66
715.754	1906.97
715.948	2135.93
716.143	3054.24
716.337	2580.54
716.532	2577.27
716.726	2246.72
716.921	2753.6
717.115	2938.94
717.31	2080.84
717.504	2952.66
717.699	2511.32
717.893	2838.18
718.088	2107.87
718.282	2045.82
718.476	2564.98
718.671	2715.91
718.865	2235.87
719.059	2186.31
719.254	2453.36
719.448	2905.15
719.642	3890.01
719.837	2000.76
720.031	2729.23
720.225	2768.96
720.419	2316.15
720.614	2129.17
720.808	2680.89
721.002	2503.74
721.196	2168.9
721.39	2177.5
721.585	2775.71
721.779	2679.26
721.973	2323.52
722.167	2019.6
722.361	2558.02
722.555	2887.74
722.749	2277.03
722.943	2201.05
723.137	2214.78
723.331	2615.36
723.525	2260.45
723.719	2239.56
723.913	2700.55
724.107	2942.83
724.301	2045.41
724.495	2210.07
724.689	2993.62
724.883	2763.02
725.077	2178.12
725.271	2183.03
725.465	2808.48
725.659	2481.22
725.853	2327.62
726.046	1981.92
726.24	2317.58
726.434	2750.73
726.628	2204.74
726.822	2217.64
727.015	2739.06
727.209	2940.58
727.403	2269.25
727.596	1998.1
727.79	2655.09
727.984	2746.84
728.177	2203.92
728.371	2252.46
728.565	2719.4
728.758	2222.15
728.952	2124.26
729.146	2092.92
729.339	2736.39
729.533	2401.14
729.726	2214.37
729.92	2016.12
730.113	2814.42
730.307	2545.32
730.5	2166.44
730.694	2062
730.887	2421.21
731.081	2608.6
731.274	2041.93
731.468	2188.15
731.661	2432.68
731.854	2337.04
732.048	2092.1
732.241	2041.11
732.435	2319.22
732.628	2434.32
732.821	2224.81
733.014	2049.71
733.208	2204.95
733.401	2612.9
733.594	2171.77
733.788	2040.08
733.981	2719.19
734.174	2613.11
734.367	2144.33
734.56	2271.3
734.754	2746.63
734.947	2475.89
735.14	2058.52
735.333	2181.19
735.526	2728.2
735.719	2271.09
735.912	2026.16
736.105	2055.24
736.298	2550.85
736.491	2386.81
736.684	2042.13
736.877	2091.08
737.07	2610.65
737.263	2836.95
737.456	2060.77
737.649	1964.72
737.842	2351.17
738.035	2539.99
738.228	2226.45
738.421	2301
738.614	2767.11
738.807	2626.42
739	1923.55
739.192	2030.05
739.385	2558.02
739.578	2594.67
739.771	2448.45
739.964	2082.89
740.156	2556.38
740.349	2461.56
740.542	2357.72
740.735	1925.81
740.927	2103.16
741.12	2196.96
741.313	1960.21
741.505	2230.75
741.698	2545.32
741.891	2544.5
742.083	2225.63
742.276	2049.3
742.468	2438.82
742.661	2393.56
742.854	2116.88
743.046	2045.2
743.239	2702.6
743.431	2402.37
743.624	2104.19
743.816	1819.72
744.009	2316.97
744.201	2492.28
744.393	2326.8
744.586	1912.09
744.778	2586.48
744.971	2379.43
745.163	2114.43
745.355	2223.38
745.548	2389.47
745.74	2336.22
745.932	2120.16
746.125	2020.01
746.317	2858.25
746.509	2473.84
746.702	2009.36
746.894	2113.2
747.086	2505.59
747.278	2633.38
747.471	2263.72
747.663	2134.7
747.855	2421.01
748.047	2800.7
748.239	1952.23
748.431	2016.94
748.623	2802.54
748.815	2664.51
749.008	1872.97
749.2	1990.52
749.392	2488.59
749.584	2515.01
749.776	2102.34
749.968	2204.74
750.16	2781.04
750.352	2301
750.544	2093.13
750.736	1939.94
750.928	2431.25
751.12	2379.23
751.311	2048.07
751.503	2137.77
751.695	2339.91
751.887	2364.28
752.079	1820.34
752.271	2012.64
752.463	3081.27
752.654	2486.95
752.846	2045.2
753.038	1975.16
753.23	2197.98
753.421	2443.94
753.613	1994.21
753.805	2244.88
753.997	2443.94
754.188	2508.66
754.38	1902.87
754.572	1986.63
754.763	2186.31
754.955	2392.54
755.146	2020.83
755.338	1965.95
755.53	2432.68
755.721	2323.93
755.913	1758.28
756.104	1826.07
756.296	2191.22
756.487	2524.63
756.679	1844.71
756.87	1907.58
757.062	2209.86
757.253	2385.58
757.445	1907.17
757.636	2090.87
757.827	2282.97
758.019	2890.4
758.21	1832.01
758.401	1897.96
758.593	2796.4
758.784	2611.67
758.975	1768.11
759.167	1828.94
759.358	2241.19
759.549	2501.7
759.74	1920.48
759.932	1845.12
760.123	2496.99
760.314	2086.98
760.505	1984.38
760.696	1858.43
760.888	2548.19
761.079	2136.54
761.27	1832.42
761.461	1625.98
761.652	2552.69
761.843	2139.41
762.034	1942.6
762.225	2219.69
762.416	2198.6
762.607	2222.56
762.798	1775.49
762.989	1891.61
763.18	3329.28
763.371	2158.87
763.562	1861.09
763.753	1854.33
763.944	2299.97
764.135	2316.56
764.326	2099.07
764.517	1896.73
764.708	2260.65
764.899	2365.51
765.089	1690.5
765.28	1669.4
765.471	2094.56
765.662	2294.24
765.853	1931.75
766.043	1673.7
766.234	2353.22
766.425	2354.86
766.615	1815.22
766.806	1608.58
766.997	2412.61
767.187	2243.86
767.378	1738.01
767.569	1638.89
767.759	2190.61
767.95	1982.33
768.141	1976.19
768.331	1711.39
768.522	2187.74
768.712	2314.51
768.903	1689.06
769.093	1668.58
769.284	2420.8
769.474	2186.92
769.665	1613.49
769.855	1458.46
770.046	2318.61
770.236	2021.86
770.426	1945.26
770.617	1657.11
770.807	2160.1
770.998	2084.93
771.188	1963.49
771.378	1684.56
771.569	2311.03
771.759	2183.03
771.949	1541.4
772.139	1398.46
772.33	2097.84
772.52	2206.17
772.71	1640.32
772.9	1581.34
773.09	2389.06
773.281	2455.62
773.471	1641.34
773.661	1655.89
773.851	2228.7
774.041	2012.23
774.231	1551.23
774.421	1951.2
774.611	2353.22
774.802	1997.08
774.992	1740.26
775.182	1515.39
775.372	2099.07
775.562	2276.83
775.752	1687.83
775.942	1736.17
776.131	2341.75
776.321	2140.43
776.511	1566.59
776.701	1559.84
776.891	2323.11
777.081	1801.7
777.271	1767.91
777.461	1609.19
777.651	2179.76
777.84	2262.29
778.03	1861.91
778.22	1646.87
778.41	2223.17
778.599	1800.06
778.789	1708.72
778.979	1533.01
779.169	2040.29
779.358	1858.22
779.548	1973.73
779.738	1445.15
779.927	2057.7
780.117	1677.18
780.307	1601.82
780.496	1276.19
780.686	2122
780.875	2459.51
781.065	1592.81
781.254	1563.32
781.444	1977.21
781.633	1942.6
781.823	1494.71
782.012	1551.64
782.202	1821.98
782.391	1906.76
782.581	1513.96
782.77	1820.34
782.96	2146.58
783.149	1853.1
783.338	1581.34
783.528	1314.49
783.717	2208.43
783.906	2262.29
784.096	1670.22
784.285	1435.52
784.474	1837.54
784.663	1748.86
784.853	1476.07
785.042	1636.02
785.231	1843.07
785.42	2124.05
785.61	1738.21
785.799	1438.19
785.988	2006.91
786.177	1811.74
786.366	1607.55
786.555	1778.76
786.744	2108.08
786.933	1863.75
787.122	1362.62
787.312	1350.53
787.501	1674.11
787.69	2018.99
787.879	1455.59
788.068	1454.77
788.257	1582.98
788.445	1744.15
788.634	1520.72
788.823	1348.08
789.012	2435.75
789.201	2244.88
789.39	1589.53
789.579	1408.49
789.768	1952.43
789.957	1871.74
790.145	1447.2
790.334	1134.47
790.523	1665.72
790.712	1781.63
790.9	1591.37
791.089	1305.68
791.278	2015.1
791.467	1889.97
791.655	1827.5
791.844	2093.13
792.033	1681.48
792.221	1849.21
792.41	1612.06
792.599	1200.83
792.787	1952.84
792.976	1996.26
793.164	1289.91
793.353	1440.03
793.541	2016.53
793.73	1961.85
793.918	1501.26
794.107	1438.8
794.295	1817.47
794.484	1774.87
794.672	1463.99
794.861	1476.69
795.049	1929.29
795.238	2244.47
795.426	1270.05
795.614	1509.46
795.803	1908.4
795.991	2184.26
796.179	1396.41
796.368	1370.6
796.556	2087.6
796.744	1535.67
796.932	1305.89
797.121	1333.13
797.309	1746.81
797.497	1995.64
797.685	1377.16
797.874	1328.01
798.062	1721.01
798.25	2151.08
798.438	1230.52
798.626	1389.44
798.814	1921.92
799.002	2256.35
799.19	1586.66
799.378	1502.7
799.566	1973.53
799.755	2154.77
799.943	1656.09
800.131	1407.47
800.318	1793.3
800.506	1846.76
800.694	1340.91
800.882	1562.91
801.07	2156.2
801.258	1760.33
801.446	1352.38
801.634	1459.08
801.822	1744.97
802.01	1798.01
802.197	1343.57
802.385	1550.82
802.573	1888.74
802.761	1540.79
802.949	1464.2
803.136	1158.23
803.324	1993.39
803.512	1833.65
803.699	1581.75
803.887	1146.76
804.075	2024.52
804.262	1663.87
804.45	1282.75
804.638	1563.52
804.825	1530.96
805.013	1585.23
805.201	1420.98
805.388	1276.81
805.576	1705.86
805.763	2102.55
805.951	1419.96
806.138	1530.34
806.326	2212.93
806.513	1823.61
806.701	1416.48
806.888	1380.64
807.075	1850.24
807.263	2211.5
807.45	1243.83
807.638	1543.86
807.825	2195.73
808.012	2025.54
808.2	1501.26
808.387	1749.89
808.574	1920.89
808.761	2123.85
808.949	1325.75
809.136	1457.85
809.323	1714.66
809.51	1718.96
809.698	1771.6
809.885	1623.12
810.072	1932.57
810.259	2098.25
810.446	1487.75
810.633	1407.26
810.82	2023.91
811.008	2202.28
811.195	1638.07
811.382	1502.29
811.569	1837.74
811.756	1458.05
811.943	1453.96
812.13	1371.83
812.317	1725.52
812.504	1583.8
812.691	1542.02
812.878	1577.24
813.064	2138.18
813.251	1797.81
813.438	1343.16
813.625	1650.97
813.812	1758.49
813.999	1704.83
814.186	1604.89
814.372	1456.41
814.559	1826.07
814.746	2198.19
814.933	1389.24
815.12	1640.12
815.306	1701.55
815.493	1460.1
815.68	1399.48
815.866	1400.3
816.053	2056.88
816.24	2185.08
816.426	1456.21
816.613	1249.36
816.799	1905.33
816.986	2126.71
817.173	1394.77
817.359	1359.13
817.546	1826.69
817.732	1403.78
817.919	1120.75
818.105	1555.94
818.292	1702.99
818.478	1839.18
818.665	1620.05
818.851	1320.02
819.037	2367.76
819.224	1763.4
819.41	1210.04
819.597	1304.45
819.783	2294.65
819.969	1863.14
820.156	1426.72
820.342	1238.51
820.528	2709.57
820.714	1607.96
820.901	1686.2
821.087	1380.64
821.273	2113.4
821.459	1665.1
821.646	1291.55
821.832	1215.16
822.018	1746.61
822.204	1693.16
822.39	1364.05
822.576	1251.41
822.762	1853.92
822.948	1820.75
823.134	1589.33
823.32	1383.1
823.507	1400.3
823.693	1835.49
823.879	1878.5
824.065	1306.91
824.25	1752.96
824.436	1443.51
824.622	1321.04
824.808	1237.49
824.994	1628.03
825.18	1530.96
825.366	1142.87
825.552	1290.73
825.738	1612.47
825.923	1959.8
826.109	1562.09
826.295	1267.18
826.481	1579.7
826.667	1530.96
826.852	1591.17
827.038	1181.58
827.224	1980.69
827.409	2068.35
827.595	1069.96
827.781	1552.67
827.966	2023.7
828.152	1960.83
828.338	1335.58
828.523	1052.35
828.709	1538.95
828.894	1930.72
829.08	1273.73
829.266	1237.28
829.451	1692.54
829.637	1826.89
829.822	1444.94
830.008	1284.59
830.193	1940.14
830.378	2086.16
830.564	1376.95
830.749	1155.36
830.935	1728.79
831.12	1746.81
831.305	1315.51
831.491	1409.51
831.676	1269.23
831.861	1831.81
832.047	1261.24
832.232	1110.92
832.417	1901.03
832.602	1693.36
832.788	1187.31
832.973	1159.87
833.158	1583.8
833.343	1618.61
833.528	1434.91
833.714	1345.62
833.899	1666.33
834.084	2136.75
834.269	1511.5
834.454	1238.51
834.639	1761.97
834.824	1670.43
835.009	1400.5
835.194	1472.59
835.379	1842.25
835.564	2088.62
835.749	1477.51
835.934	1114.81
836.119	1833.03
836.304	1671.04
836.489	1182.6
836.674	1563.11
836.859	1379.82
837.044	1955.91
837.228	1256.74
837.413	1218.64
837.598	1666.53
837.783	1861.5
837.968	1266.57
838.152	1124.03
838.337	1117.06
838.522	1969.84
838.707	1811.33
838.891	1447.2
839.076	1661.01
839.261	1800.27
839.445	1341.93
839.63	1385.55
839.815	2047.46
839.999	1451.29
840.184	1165.6
840.368	1236.46
840.553	1809.89
840.737	1688.04
840.922	1108.67
841.106	1012.21
841.291	1261.45
841.475	1616.56
841.66	1160.48
841.844	1170.72
842.029	2287.27
842.213	1220.9
842.397	1204.1
842.582	909.81
842.766	1766.89
842.951	1744.56
843.135	1210.66
843.319	1190.18
843.504	1626.19
843.688	1884.23
843.872	911.45
844.056	1010.16
844.241	1694.18
844.425	1457.23
844.609	1395.79
844.793	933.57
844.977	1777.12
845.161	1611.03
845.346	1007.91
845.53	1105.6
845.714	1452.93
845.898	1935.43
846.082	900.39
846.266	1075.29
846.45	1455.8
846.634	1575.6
846.818	1105.8
847.002	1282.13
847.186	1653.84
847.37	1150.24
847.554	989.27
847.738	1302.2
847.922	1568.03
848.106	1533.42
848.29	960.8
848.473	1049.48
848.657	1676.98
848.841	1350.53
849.025	1085.32
849.209	863.53
849.392	1616.77
849.576	1338.04
849.76	791.64
849.944	1265.75
850.127	1850.65
850.311	1181.78
850.495	948.31
850.678	884.01
850.862	1704.83
851.046	1812.76
851.229	1400.3
851.413	939.1
851.596	1509.86
851.78	1361.59
851.964	1257.35
852.147	1109.69
852.331	2195.93
852.514	1806
852.698	1179.94
852.881	886.87
853.065	1594.04
853.248	1396.41
853.431	1212.5
853.615	1189.36
853.798	2129.99
853.982	1558.2
854.165	1253.66
854.348	1042.11
854.532	1061.16
854.715	1229.91
854.898	1047.23
855.081	1034.94
855.265	1745.79
855.448	1958.78
855.631	957.73
855.814	1016.71
855.997	1586.25
856.181	1367.12
856.364	1117.68
856.547	813.76
856.73	1513.96
856.913	1437.16
857.096	850.21
857.279	1105.39
857.462	1282.54
857.645	1593.63
857.828	1217.42
858.011	1178.71
858.194	1277.83
858.377	1531.57
858.56	882.37
858.743	1005.45
858.926	1208.2
859.109	1440.64
859.292	972.27
859.475	804.75
859.658	1617.18
859.841	1512.32
860.023	859.23
860.206	865.37
860.389	1382.69
860.572	1580.52
860.755	1031.66
860.937	1026.54
861.12	1258.58
861.303	1346.44
861.486	1013.85
861.668	1010.77
861.851	1374.29
862.034	1470.54
862.216	1147.17
862.399	791.44
862.581	1471.57
862.764	1689.47
862.947	1004.84
863.129	842.02
863.312	1031.66
863.494	1634.79
863.677	1355.24
863.859	701.12
864.042	1543.86
864.224	1465.63
864.406	1115.43
864.589	707.27
864.771	1356.88
864.954	1054.6
865.136	974.12
865.318	660.57
865.501	1594.04
865.683	799.02
865.865	900.18
866.048	858.82
866.23	1435.11
866.412	1306.5
866.594	754.78
866.777	1003.81
866.959	1328.62
867.141	1112.97
867.323	1190.38
867.505	1065.05
867.687	1186.9
867.869	1284.59
868.052	899.98
868.234	857.59
868.416	1303.84
868.598	1462.76
868.78	958.96
868.962	743.11
869.144	1506.59
869.326	1440.23
869.508	857.38
869.69	717.71
869.872	1045.18
870.054	1582.16
870.236	639.68
870.417	741.88
870.599	1148.4
870.781	1691.31
870.963	1053.37
871.145	829.12
871.327	1014.46
871.508	1487.54
871.69	911.86
871.872	919.03
872.054	1169.08
872.235	1347.05
872.417	996.85
872.599	720.17
872.78	1696.03
872.962	1223.15
873.144	630.47
873.325	899.98
873.507	1627.83
873.689	1211.89
873.87	756.01
874.052	1023.06
874.233	1181.17
874.415	1607.35
874.596	942.17
874.778	737.17
874.959	1295.65
875.141	1539.56
875.322	878.07
875.503	799.63
875.685	1353.2
875.866	814.58
876.048	841.41
876.229	747.82
876.41	1207.79
876.592	1391.08
876.773	900.39
876.954	685.15
877.136	1576.01
877.317	1120.14
877.498	669.38
877.679	1019.79
877.86	1342.55
878.042	1199.6
878.223	819.29
878.404	1323.91
878.585	1448.63
878.766	1722.24
878.947	1210.04
879.128	1064.23
879.309	1411.97
879.49	1584
879.672	993.16
879.853	960.19
880.034	1029.62
880.215	1257.96
880.396	1017.53
880.576	832.19
880.757	1059.31
880.938	1658.55
881.119	749.86
881.3	838.54
881.481	1131.2
881.662	2135.31
881.843	745.36
882.023	723.04
882.204	1402.96
882.385	1244.86
882.566	817.45
882.747	836.29
882.927	1177.48
883.108	1251.82
883.289	766.45
883.469	1103.34
883.65	1147.17
883.831	1272.51
884.011	1156.18
884.192	856.56
884.373	1499.63
884.553	1310.6
884.734	1067.3
884.914	1289.09
885.095	2191.84
885.275	1628.44
885.456	1231.96
885.636	702.15
885.817	1148.19
885.997	1288.89
886.178	777.1
886.358	950.56
886.538	1302
886.719	2482.85
886.899	851.65
887.08	977.6
887.26	1506.59
887.44	964.9
887.621	772.6
887.801	1014.46
887.981	1816.04
888.161	1462.76
888.342	931.93
888.522	985.18
888.702	1510.68
888.882	1589.33
889.062	1029.62
889.242	619.61
889.423	1668.17
889.603	1447.61
889.783	1045.18
889.963	881.55
890.143	1382.48
890.323	1534.03
890.503	869.47
890.683	932.75
890.863	1270.05
891.043	1265.13
891.223	1036.37
891.403	1145.33
891.583	1293.6
891.763	1381.46
891.943	1010.98
892.122	938.28
892.302	1302
892.482	1234.21
892.662	1129.97
892.842	1038.83
893.022	1369.58
893.201	1210.86
893.381	1065.66
893.561	891.17
893.741	1526.45
893.92	1302.2
894.1	1103.34
894.28	1019.99
894.459	1554.92
894.639	1345.62
894.819	892.2
894.998	1053.58
895.178	1390.06
895.357	1301.59
895.537	865.16
895.716	737.17
895.896	1247.11
896.075	1685.38
896.255	942.58
896.434	646.44
896.614	1663.46
896.793	1589.53
896.973	1128.53
897.152	1068.53
897.331	1271.69
897.511	1433.07
897.69	698.46
897.87	997.67
898.049	1456.41
898.228	1208.81
898.407	1131.2
898.587	1096.38
898.766	1077.54
898.945	1439.41
899.124	1328.62
899.304	999.1
899.483	1479.96
899.662	1773.64
899.841	892.2
900.02	877.45
900.199	1559.22
900.378	1372.45
900.557	850.01
900.737	796.76
900.916	1309.37
901.095	1394.36
901.274	1202.26
901.453	716.89
901.632	976.37
901.811	1006.47
901.989	832.4
902.168	791.23
902.347	1469.93
902.526	1121.37
902.705	937.87
902.884	1081.63
903.063	1680.87
903.242	1589.33
903.42	811.3
903.599	1045.18
903.778	1473.82
903.957	1689.68
904.135	1112.35
904.314	975.55
904.493	1328.01
904.672	1284.18
904.85	939.71
905.029	910.83
905.207	1305.48
905.386	1909.42
905.565	689.86
905.743	846.73
905.922	1170.72
906.1	1372.65
906.279	698.25
906.457	817.65
906.636	1108.67
906.814	1103.34
906.993	907.97
907.171	706.45
907.35	1377.77
907.528	1533.83
907.707	1181.99
907.885	696.41
908.063	1583.18
908.242	1055.83
908.42	866.8
908.598	523.77
908.777	1399.68
908.955	989.68
909.133	1042.72
909.311	658.11
909.49	1058.49
909.668	1129.35
909.846	753.96
910.024	557.56
910.202	1158.02
910.38	1294.62
910.559	697.64
910.737	744.33
910.915	1217.62
911.093	1193.04
911.271	802.29
911.449	956.09
911.627	1239.12
911.805	1738.83
911.983	808.44
912.161	728.77
912.339	1139.39
912.517	1482.01
912.695	984.97
912.872	840.38
913.05	1001.15
913.228	1284.18
913.406	828.71
913.584	698.05
913.762	1371.83
913.939	1032.69
914.117	730
914.295	648.49
914.473	1160.48
914.65	1273.94
914.828	761.33
915.006	667.54
915.184	826.25
915.361	1287.46
915.539	921.89
915.716	995.62
915.894	1201.03
916.072	1311.83
916.249	1158.43
916.427	916.98
916.604	831.99
916.782	1328.62
916.959	643.37
917.137	737.37
917.314	1137.54
917.492	1163.35
917.669	882.57
917.847	834.44
918.024	1134.68
918.201	859.02
918.379	817.86
918.556	797.99
918.733	1260.83
918.911	918.41
919.088	993.16
919.265	687.61
919.442	1184.65
919.62	1106.42
919.797	692.32
919.974	588.28
920.151	1188.74
920.328	1047.02
920.506	652.38
920.683	1337.43
920.86	775.46
921.037	882.78
921.214	829.73
921.391	658.73
921.568	1260.42
921.745	874.79
921.922	786.52
922.099	681.46
922.276	1220.08
922.453	1051.32
922.63	588.07
922.807	1086.35
922.984	1120.55
923.161	886.67
923.338	775.05
923.514	595.86
923.691	1087.98
923.868	1174.61
924.045	647.67
924.222	535.03
924.399	1056.65
924.575	1207.38
924.752	747.41
924.929	780.99
925.105	1013.85
925.282	750.27
925.459	782.02
925.635	710.95
925.812	1014.46
925.989	849.4
926.165	795.74
926.342	452.91
926.518	744.54
926.695	922.92
926.871	617.36
927.048	516.19
927.224	1236.05
927.401	862.5
927.577	785.09
927.754	457.82
927.93	1255.3
928.107	1163.96
928.283	528.89
928.459	759.49
928.636	1123.41
928.812	925.37
928.988	568.82
929.165	379.39
929.341	911.45
929.517	978.42
929.693	1028.8
929.87	395.97
930.046	1071.19
930.222	819.09
930.398	496.73
930.574	715.66
930.751	876.84
930.927	802.09
931.103	605.48
931.279	629.85
931.455	735.32
931.631	986.61
931.807	376.31
931.983	402.12
932.159	547.93
932.335	918.82
932.511	594.22
932.687	560.22
932.863	892.61
933.039	996.85
933.215	425.47
933.391	368.33
933.566	828.3
933.742	896.09
933.918	556.13
934.094	333.31
934.27	899.16
934.445	843.25
934.621	713.41
934.797	480.35
934.973	1045.18
935.148	859.84
935.324	409.9
935.5	240.12
935.675	1074.47
935.851	939.3
936.027	659.14
936.202	598.11
936.378	1031.25
936.553	812.94
936.729	1106.21
936.904	489.16
937.08	608.35
937.255	691.29
937.431	522.74
937.606	429.56
937.782	701.94
937.957	930.7
938.133	644.19
938.308	508
938.483	855.13
938.659	595.24
938.834	677.98
939.009	397
939.185	813.56
939.36	600.98
939.535	183.81
939.71	662.83
939.886	1083.68
940.061	878.89
940.236	792.26
940.411	561.86
940.586	898.75
940.761	994.8
940.937	642.35
941.112	422.39
941.287	790.62
941.462	794.1
941.637	360.34
941.812	556.54
941.987	825.64
942.162	740.03
942.337	630.67
942.512	451.27
942.687	1108.87
942.862	864.35
943.037	306.48
943.212	151.65
943.386	677.57
943.561	792.87
943.736	643.98
943.911	927.01
944.086	951.59
944.26	820.11
944.435	441.64
944.61	598.93
944.785	930.29
944.959	1260.22
945.134	502.67
945.309	357.27
945.483	503.29
945.658	954.87
945.833	141.62
946.007	240.12
946.182	1083.68
946.357	508.82
946.531	327.78
946.706	368.33
946.88	345.39
947.055	776.08
947.229	395.57
947.404	267.36
947.578	863.73
947.752	613.06
947.927	251.8
948.101	174.79
948.276	987.02
948.45	769.52
948.624	665.08
948.799	301.77
948.973	728.16
949.147	331.87
949.321	385.73
949.496	371.19
949.67	983.13
949.844	562.27
950.018	365.87
950.193	342.32
950.367	1183.42
950.541	551.01
950.715	435.09
950.889	526.84
951.063	557.76
951.237	790.41
951.411	124.21
951.585	142.03
951.759	767.68
951.933	643.78
952.107	235.62
952.281	492.02
952.455	982.1
952.629	786.11
952.803	290.09
952.977	278.42
953.151	799.02
953.325	562.68
953.499	449.84
953.672	49.87
953.846	381.64
954.02	535.03
954.194	186.06
954.368	205.51
954.541	781.4
954.715	480.56
954.889	384.3
955.062	154.93
955.236	479.12
955.41	503.29
955.583	428.13
955.757	73.62
955.93	504.31
956.104	261.22
956.278	215.14
956.451	253.23
956.625	679.41
956.798	941.35
956.972	584.8
957.145	115.61
957.319	656.07
957.492	580.91
957.665	446.35
957.839	100.25
958.012	608.76
958.185	371.81
958.359	263.27
958.532	465.2
958.705	623.3
958.879	565.55
959.052	333.51
959.225	15.46
959.398	548.34
959.572	581.93
959.745	143.46
959.918	241.56
960.091	487.72
960.264	682.69
960.438	122.16
960.611	86.94
960.784	746.18
960.957	338.43
961.13	677.37
961.303	87.55
961.476	490.59
961.649	837.11
961.822	88.98
961.995	320.61
962.168	523.77
962.341	612.45
962.514	181.35
962.686	158.62
962.859	547.73
963.032	640.09
963.205	209
963.378	-65.64
963.551	528.68
963.723	385.33
963.896	310.37
964.069	398.23
964.242	471.14
964.414	787.96
964.587	242.58
964.76	306.48
964.932	509.02
965.105	451.68
965.278	167.83
965.45	94.31
965.623	537.9
965.795	619.41
965.968	188.72
966.14	174.38
966.313	429.36
966.485	498.78
966.658	127.69
966.83	103.93
967.003	669.79
967.175	628.62
967.348	137.11
967.52	166.81
967.692	868.44
967.865	655.04
968.037	160.25
968.209	437.34
968.382	491.82
968.554	681.05
968.726	186.67
968.898	61.54
969.071	603.64
969.243	562.88
969.415	206.33
969.587	287.43
969.759	907.97
969.932	558.99
970.104	207.36
970.276	-169.26
970.448	281.9
970.62	346
970.792	320
970.964	205.92
971.136	899.78
971.308	551.62
971.48	44.34
971.652	121.75
971.824	757.85
971.996	326.55
972.168	180.32
972.339	221.69
972.511	586.64
972.683	420.96
972.855	410.72
973.027	91.03
973.199	521.52
973.37	623.71
973.542	289.69
973.714	353.79
973.886	314.06
974.057	649.72
974.229	83.45
974.401	90.83
974.572	241.97
974.744	6.45
974.915	5.02
975.087	102.91
975.259	781.2
975.43	260.4
975.602	67.28
975.773	8.5
975.945	231.52
976.116	617.36
976.288	21.81
976.459	313.65
976.63	296.44
976.802	511.48
976.973	43.11
977.145	292.35
977.316	923.94
977.487	923.12
977.659	296.44
977.83	162.51
978.001	858.41
978.172	492.43
978.344	28.36
978.515	147.35
978.686	310.98
978.857	796.35
979.028	96.36
979.2	1.54
979.371	716.48
979.542	369.56
979.713	266.34
979.884	-271.25
980.055	253.03
980.226	311.6
980.397	54.99
980.568	-13.82
980.739	624.73
980.91	317.33
981.081	269.62
981.252	38.81
981.423	424.24
981.594	532.78
981.765	2.15
981.936	191.38
982.106	397.82
982.277	678.39
982.448	-9.73
982.619	279.24
982.79	197.94
982.96	529.09
983.131	230.29
983.302	-173.36
983.472	284.57
983.643	433.66
983.814	190.15
983.984	55.19
984.155	316.92
984.326	547.32
984.496	185.44
984.667	92.47
984.837	150.42
985.008	702.97
985.178	409.08
985.349	100.45
985.519	323.89
985.69	168.86
985.86	104.14
986.031	16.69
986.201	409.29
986.371	460.28
986.542	-94.72
986.712	-197.73
986.882	437.34
987.053	463.76
987.223	-59.9
987.393	284.36
987.563	253.23
987.734	507.59
987.904	417.07
988.074	-32.67
988.244	344.78
988.414	238.9
988.585	-40.04
988.755	160.66
988.925	326.75
989.095	730.82
989.265	-66.66
989.435	131.17
989.605	487.52
989.775	506.97
989.945	361.36
990.115	-141.41
990.285	300.95
990.455	381.64
990.625	119.7
990.795	-89.19
990.965	685.76
991.134	120.32
991.304	-56.22
991.474	-54.58
991.644	411.54
991.814	685.15
991.984	-155.54
992.153	-23.86
992.323	232.75
992.493	384.92
992.662	-213.71
992.832	192.2
993.002	286.61
993.171	455.98
993.341	-213.91
993.511	35.33
993.68	161.48
993.85	493.66
994.019	-175
994.189	-153.7
994.358	300.13
994.528	160.25
994.697	-331.46
994.867	-147.35
995.036	523.56
995.206	174.38
995.375	-140.39
995.544	155.75
995.714	462.74
995.883	235
996.052	168.45
996.222	-340.88
996.391	709.72
996.56	365.87
996.73	-137.52
996.899	-250.57
997.068	645.83
997.237	275.96
997.406	-166.6
997.576	-139.57
997.745	434.68
997.914	299.93
998.083	-353.79
998.252	-86.53
998.421	336.38
998.59	66.25
998.759	-190.56
998.928	-320.4
999.097	580.7
999.266	349.28
999.435	104.34
999.604	-332.08
999.773	699.07
999.942	199.57
1000.111	-364.44
1000.28	-343.55
1000.448	21.81
1000.617	3.79
1000.786	84.27
1000.955	-279.45
1001.124	410.72
1001.292	902.03
1001.461	-146.94
1001.63	-238.69
1001.798	520.7
1001.967	512.09
1002.136	-254.05
1002.304	-227.84
1002.473	273.3
1002.642	229.88
1002.81	-100.45
1002.979	-90.42
1003.147	460.08
1003.316	730.41
1003.484	-168.04
1003.653	-223.13
1003.821	475.23
1003.99	142.03
1004.158	41.47
1004.327	-41.88
1004.495	381.43
1004.663	77.52
1004.832	7.07
1005	-295.42
1005.168	369.56
1005.337	210.84
1005.505	-355.63
1005.673	73.21
1005.842	419.53
1006.01	282.72
1006.178	-302.59
1006.346	-194.45
1006.514	316.51
1006.683	632.11
1006.851	-203.26
1007.019	-27.75
1007.187	-39.83
1007.355	-250.57
1007.523	-408.67
1007.691	-331.67
1007.859	-113.56
1008.027	614.7
1008.195	-194.05
1008.363	-328.39
1008.531	303.61
1008.699	153.5
1008.867	-411.54
1009.035	-230.5
1009.203	584.39
1009.37	224.35
1009.538	-179.71
1009.706	319.59
1009.874	239.31
1010.042	217.8
1010.209	-332.69
1010.377	-310.98
1010.545	400.89
1010.713	250.16
1010.88	-256.51
1011.048	-186.26
1011.216	138.95
1011.383	540.36
1011.551	-247.7
1011.718	-353.79
1011.886	420.35
1012.054	238.08
1012.221	-309.96
1012.389	-289.89
1012.556	181.14
1012.724	619
1012.891	-95.13
1013.058	-437.14
1013.226	373.04
1013.393	386.55
1013.561	-379.59
1013.728	-435.71
1013.895	462.33
1014.063	310.57
1014.23	-401.3
1014.397	-274.94
1014.565	448.61
1014.732	145.51
1014.899	-333.1
1015.066	-330.44
1015.233	264.5
1015.401	385.73
1015.568	-215.34
1015.735	-83.25
1015.902	281.49
1016.069	488.95
1016.236	-200.39
1016.403	-341.91
1016.57	-68.09
1016.737	508
1016.904	-184.42
1017.071	-351.53
1017.238	18.33
1017.405	355.02
1017.572	-237.46
1017.739	6.86
1017.906	417.07
1018.073	459.46
1018.24	-342.11
1018.407	-141.41
1018.573	412.97
1018.74	153.29
1018.907	-169.88
1019.074	-442.67
1019.241	397.41
1019.407	198.96
1019.574	-301.15
1019.741	-380.41
1019.907	346.21
1020.074	582.14
1020.241	-531.55
1020.407	-379.39
1020.574	255.28
1020.74	296.03
1020.907	-253.23
1021.073	-328.8
1021.24	761.13
1021.406	458.44
1021.573	-382.05
1021.739	-312.01
1021.906	477.28
1022.072	149.6
1022.239	-268.59
1022.405	-225.99
1022.571	241.76
1022.738	45.77
1022.904	-283.95
1023.07	-162.51
1023.237	225.17
1023.403	449.63
1023.569	-250.36
1023.735	-201.62
1023.902	302.59
1024.068	278.22
1024.234	-417.89
1024.4	-303.41
1024.566	228.04
1024.732	352.15
1024.898	-282.93
1025.065	-449.02
1025.231	311.39
1025.397	65.84
1025.563	-213.5
1025.729	-344.57
1025.895	-278.83
1026.061	-41.06
1026.227	-495.71
1026.392	-239.1
1026.558	378.16
1026.724	326.75
1026.89	-324.5
1027.056	-175.82
1027.222	205.1
1027.388	110.69
1027.553	-251.8
1027.719	-343.34
1027.885	610.6
1028.051	275.35
1028.216	-511.07
1028.382	-247.5
1028.548	354.4
1028.713	124.41
1028.879	-430.79
1029.045	-92.06
1029.21	519.67
1029.376	415.84
1029.541	-263.68
1029.707	-259.58
1029.873	361.98
1030.038	425.88
1030.204	-303.2
1030.369	-259.38
1030.534	335.35
1030.7	85.71
1030.865	-221.28
1031.031	-317.54
1031.196	276.78
1031.361	254.66
1031.527	-285.18
1031.692	-320.2
1031.857	-222.92
1032.023	327.78
1032.188	-362.39
1032.353	-248.73
1032.518	494.69
1032.684	232.75
1032.849	-458.64
1033.014	-220.87
1033.179	288.25
1033.344	318.77
1033.509	-181.55
1033.674	-277.19
1033.839	342.73
1034.004	368.53
1034.17	-272.48
1034.335	-383.48
1034.5	121.55
1034.664	49.25
1034.829	-319.18
1034.994	-207.56
1035.159	135.06
1035.324	258.76
1035.489	-267.36
1035.654	-334.95
1035.819	608.14
1035.984	249.95
1036.148	-195.07
1036.313	-230.91
1036.478	410.11
1036.643	163.94
1036.807	-306.89
1036.972	-378.16
1037.137	618.38
1037.301	182.17
1037.466	-477.89
1037.631	-153.7
1037.795	404.17
1037.96	189.95
1038.124	-62.16
1038.289	-411.54
1038.454	269
1038.618	351.74
1038.783	-210.02
1038.947	-192.41
1039.111	178.48
1039.276	100.04
1039.44	-330.03
1039.605	261.22
1039.769	113.36
1039.933	156.77
1040.098	-213.71
1040.262	32.05
1040.426	407.03
1040.591	308.94
1040.755	-306.27
1040.919	-194.05
1041.083	339.04
1041.248	156.98
1041.412	-470.32
1041.576	-356.86
1041.74	125.44
1041.904	322.66
1042.068	-335.56
1042.232	-221.69
1042.397	479.33
1042.561	262.86
1042.725	-491.82
1042.889	-61.54
1043.053	309.35
1043.217	255.07
1043.381	-179.3
1043.544	-406.62
1043.708	412.56
1043.872	-22.02
1044.036	-511.07
1044.2	-425.06
1044.364	479.33
1044.528	496.73
1044.691	2836.95
1044.855	-381.43
1045.019	363
1045.183	366.69
1045.346	-181.14
1045.51	-391.26
1045.674	320.2
1045.837	335.15
1046.001	-273.1
1046.165	-286
1046.328	718.33
1046.492	220.26
1046.655	-65.02
1046.819	-224.56
1046.983	108.85
1047.146	210.63
1047.31	-162.92
1047.473	-458.03
1047.636	205.51
1047.8	12.39
1047.963	-194.25
1048.127	-312.01
1048.29	32.05
