Data from USB4F045381__7__11-21-12-951.txt Node

Date: Wed Apr 24 11:21:12 EDT 2024
User: dsalmieri
Spectrometer: USB4F04538
Trigger mode: 4
Integration Time (sec): 1.000000E0
Scans to average: 10
Electric dark correction enabled: true
Nonlinearity correction enabled: false
Boxcar width: 0
XAxis mode: Wavelengths
Number of Pixels in Spectrum: 3648
>>>>>Begin Spectral Data<<<<<
345.52	-1125.99
345.736	-1125.99
345.952	-1125.99
346.168	-1116.57
346.384	-1125.38
346.6	-169.59
346.816	-260.72
347.032	-153.61
347.248	405.48
347.464	-282.43
347.68	-160.37
347.896	71.46
348.112	370.05
348.328	-115.11
348.544	-70.67
348.76	91.94
348.975	273.59
349.191	-259.9
349.407	-298.82
349.623	97.88
349.839	-34.22
350.055	-216.49
350.27	0.39
350.486	138.02
350.702	259.87
350.918	221.57
351.133	-204.61
351.349	133.92
351.565	429.85
351.781	-339.37
351.996	-15.99
352.212	196.18
352.428	-102.83
352.644	-263.8
352.859	-261.95
353.075	240.82
353.291	121.22
353.506	-193.75
353.722	-307.01
353.938	-79.48
354.153	449.1
354.369	102.59
354.584	-280.18
354.8	278.51
355.016	-296.97
355.231	-324.62
355.447	-130.68
355.662	183.07
355.878	750.15
356.093	-404.08
356.309	-73.74
356.524	-212.19
356.74	286.7
356.955	-305.16
357.171	-109.17
357.386	159.11
357.602	-212.39
357.817	-144.81
358.033	-231.44
358.248	313.32
358.464	195.36
358.679	-228.98
358.895	-378.89
359.11	-9.23
359.325	214
359.541	201.91
359.756	-47.94
359.972	-267.69
360.187	236.52
360.402	-264
360.618	-218.33
360.833	1084.79
361.048	142.52
361.264	-237.99
361.479	-117.78
361.694	37.05
361.909	190.03
362.125	-266.87
362.34	-178.4
362.555	205.8
362.77	117.33
362.986	-354.32
363.201	-242.09
363.416	176.31
363.631	15.34
363.847	-262.98
364.062	-234.1
364.277	193.93
364.492	36.03
364.707	-209.73
364.922	-415.55
365.138	265.81
365.353	331.75
365.568	-341.82
365.783	-217.92
365.998	153.79
366.213	541.06
366.428	-302.09
366.643	21.28
366.858	282.4
367.073	209.08
367.288	-183.72
367.503	-287.14
367.718	89.89
367.933	345.68
368.148	-355.13
368.363	-112.66
368.578	12.07
368.793	448.08
369.008	-217.31
369.223	-335.06
369.438	236.32
369.653	276.87
369.868	-336.91
370.083	-348.99
370.298	117.54
370.513	392.17
370.728	-1.25
370.943	-278.75
371.157	-172.87
371.372	554.57
371.587	-342.44
371.802	-380.53
372.017	55.28
372.232	420.23
372.446	-103.03
372.661	-317.25
372.876	174.67
373.091	203.14
373.306	-149.93
373.52	-341.82
373.735	-102.01
373.95	430.26
374.165	-211.57
374.379	-189.45
374.594	-122.69
374.809	181.84
375.023	-33.4
375.238	-310.08
375.453	257.21
375.667	-244.54
375.882	-264.41
376.097	-284.68
376.311	21.49
376.526	55.28
376.741	-285.91
376.955	92.55
377.17	479.62
377.384	681.75
377.599	-85.62
377.813	-367.42
378.028	583.45
378.242	207.44
378.457	-140.3
378.672	-408.38
378.886	12.07
379.101	-25
379.315	-436.03
379.53	-253.97
379.744	256.8
379.958	185.32
380.173	-239.42
380.387	-291.65
380.602	209.49
380.816	-107.74
381.031	-237.17
381.245	-191.91
381.459	183.89
381.674	3188.06
381.888	-300.04
382.103	83.54
382.317	-146.45
382.531	383.36
382.746	-151.77
382.96	-260.31
383.174	-75.79
383.388	534.09
383.603	-22.95
383.817	-394.87
384.031	108.73
384.246	436.41
384.46	-96.27
384.674	345.68
384.888	-17.83
385.103	59.17
385.317	-372.54
385.531	-73.54
385.745	437.84
385.959	308.2
386.174	-285.71
386.388	-285.91
386.602	5.92
386.816	-114.5
387.03	-168.77
387.244	-151.16
387.458	87.84
387.672	338.31
387.887	-406.13
388.101	-340.39
388.315	320.29
388.529	124.7
388.743	-252.94
388.957	-306.6
389.171	305.13
389.385	-198.87
389.599	-277.93
389.813	-27.26
390.027	186.76
390.241	635.67
390.455	-220.99
390.669	-147.27
390.883	-46.71
391.097	530.61
391.311	-8.41
391.525	-263.39
391.738	247.17
391.952	225.26
392.166	-115.11
392.38	-342.85
392.594	260.89
392.808	302.67
393.022	-165.08
393.236	-216.08
393.449	181.02
393.663	229.36
393.877	-361.69
394.091	-139.28
394.305	84.97
394.518	-118.39
394.732	-367.83
394.946	-200.1
395.16	499.89
395.373	109.55
395.587	-324.01
395.801	-264
396.015	301.03
396.228	223.21
396.442	-372.95
396.656	-465.32
396.869	310.25
397.083	485.56
397.297	-155.87
397.51	-236.35
397.724	283.22
397.938	124.5
398.151	-409.82
398.365	-388.52
398.578	233.45
398.792	378.24
399.005	-74.36
399.219	-223.04
399.433	118.97
399.646	242.87
399.86	-35.86
400.073	-13.12
400.287	202.94
400.5	49.13
400.714	-38.93
400.927	-157.71
401.141	262.74
401.354	1178.59
401.567	183.89
401.781	-380.94
401.994	199.46
402.208	618.67
402.421	-161.6
402.635	-196.01
402.848	-45.89
403.061	268.68
403.275	-138.46
403.488	-292.88
403.701	427.19
403.915	314.35
404.128	-19.27
404.341	-227.34
404.555	291.61
404.768	-39.34
404.981	-23.77
405.195	-251.1
405.408	438.45
405.621	249.84
405.834	-9.23
406.048	-334.66
406.261	412.44
406.474	393.19
406.687	-299.23
406.9	-94.02
407.114	73.51
407.327	260.69
407.54	-388.93
407.753	-416.57
407.966	-141.94
408.179	171.81
408.392	-276.7
408.605	-401.21
408.819	146.62
409.032	246.97
409.245	-242.91
409.458	-13.53
409.671	189.62
409.884	310.05
410.097	-376.43
410.31	-57.36
410.523	268.06
410.736	4.28
410.949	-160.78
411.162	-195.19
411.375	377.63
411.588	214.81
411.801	-81.32
412.014	-210.75
412.227	18.21
412.44	-31.56
412.653	-223.66
412.865	-49.78
413.078	335.65
413.291	236.32
413.504	-128.22
413.717	-295.74
413.93	279.74
414.143	-132.11
414.356	-131.29
414.568	-439.92
414.781	298.78
414.994	194.54
415.207	-133.34
415.42	-147.88
415.632	217.89
415.845	544.74
416.058	-389.54
416.271	-334.04
416.483	130.44
416.696	508.08
416.909	-252.94
417.121	-302.09
417.334	129.62
417.547	471.83
417.759	-283.05
417.972	-299.63
418.185	-32.58
418.397	234.27
418.61	-242.7
418.823	-271.17
419.035	413.47
419.248	127.98
419.46	-198.06
419.673	-106.92
419.885	117.33
420.098	57.74
420.311	-236.56
420.523	-427.84
420.736	246.15
420.948	74.73
421.161	-225.91
421.373	-405.11
421.586	-16.61
421.798	-92.79
422.01	-392.82
422.223	-86.44
422.435	-80.09
422.648	308.82
422.86	-247.82
423.073	-212.6
423.285	220.96
423.497	-223.04
423.71	-273.42
423.922	-277.11
424.134	363.91
424.347	491.7
424.559	-13.53
424.771	58.96
424.984	44.22
425.196	213.79
425.408	-417.19
425.621	-339.98
425.833	330.12
426.045	397.49
426.257	-311.72
426.47	-190.89
426.682	79.65
426.894	182.25
427.106	-220.58
427.318	-152.59
427.531	-37.49
427.743	250.86
427.955	-165.49
428.167	313.73
428.379	161.36
428.591	38.28
428.804	-120.44
429.016	-255.81
429.228	35.41
429.44	241.23
429.652	-7.39
429.864	-315.61
430.076	84.36
430.288	73.51
430.5	-156.89
430.712	-89.92
430.924	349.98
431.136	211.74
431.348	-338.75
431.56	-232.05
431.772	82.11
431.984	14.11
432.196	-257.65
432.408	-197.65
432.62	67.57
432.832	236.52
433.044	111.8
433.256	-69.24
433.468	285.06
433.679	-185.36
433.891	-284.07
434.103	67.77
434.315	324.38
434.527	305.13
434.739	-37.49
434.95	-126.38
435.162	332.37
435.374	-0.63
435.586	-93.2
435.798	-159.96
436.009	-81.73
436.221	49.75
436.433	-150.95
436.645	-118.59
436.856	49.95
437.068	416.33
437.28	-176.14
437.491	151.12
437.703	358.99
437.915	330.12
438.126	-80.09
438.338	179.59
438.55	169.76
438.761	298.99
438.973	-62.68
439.184	-64.12
439.396	173.24
439.608	383.98
439.819	-126.17
440.031	32.34
440.242	413.26
440.454	443.37
440.665	-47.94
440.877	49.75
441.088	458.11
441.3	233.66
441.511	-203.79
441.723	-63.91
441.934	320.29
442.146	315.57
442.357	105.25
442.569	279.33
442.78	386.03
442.991	791.52
443.203	331.34
443.414	-85.83
443.626	747.9
443.837	180.82
444.048	-40.36
444.26	-145.01
444.471	437.22
444.682	502.96
444.894	-111.43
445.105	-117.98
445.316	629.94
445.528	529.59
445.739	174.67
445.95	154.81
446.161	466.31
446.373	623.59
446.584	85.38
446.795	79.85
447.006	588.77
447.217	723.94
447.429	-35.65
447.64	-1.86
447.851	779.85
448.062	496.41
448.273	-65.76
448.484	62.65
448.695	598.6
448.907	490.27
449.118	175.29
449.329	339.33
449.54	318.03
449.751	260.69
449.962	63.67
450.173	62.45
450.384	692.61
450.595	776.57
450.806	73.51
451.017	125.32
451.228	710.63
451.439	649.19
451.65	88.46
451.861	-141.12
452.072	202.12
452.283	386.03
452.494	243.28
452.705	2.24
452.915	800.94
453.126	472.04
453.337	97.88
453.548	-29.1
453.759	639.77
453.97	804.02
454.181	320.08
454.391	56.3
454.602	461.19
454.813	538.8
455.024	84.36
455.235	-35.65
455.445	506.04
455.656	479.82
455.867	158.91
456.078	-4.11
456.288	258.23
456.499	465.28
456.71	-77.23
456.921	221.16
457.131	412.65
457.342	365.14
457.553	61.63
457.763	-14.56
457.974	413.26
458.184	491.7
458.395	-92.18
458.606	-71.9
458.816	610.69
459.027	749.33
459.237	110.98
459.448	-188.84
459.659	605.98
459.869	920.54
460.08	-202.36
460.29	70.64
460.501	727.22
460.711	211.74
460.922	-151.16
461.132	-74.15
461.343	1006.56
461.553	17.8
461.764	-70.06
461.974	-15.17
462.184	568.09
462.395	434.36
462.605	8.79
462.816	-99.55
463.026	385.62
463.236	546.18
463.447	-84.39
463.657	-73.74
463.867	555.19
464.078	249.43
464.288	11.25
464.498	-36.47
464.709	337.69
464.919	302.67
465.129	27.84
465.339	-96.48
465.55	451.97
465.76	552.32
465.97	-11.69
466.18	-60.64
466.391	545.36
466.601	425.96
466.811	30.09
467.021	-151.57
467.231	446.64
467.441	590
467.651	-14.35
467.862	-311.1
468.072	302.06
468.282	518.53
468.492	-104.87
468.702	30.7
468.912	256.39
469.122	896.99
469.332	242.67
469.542	-116.34
469.752	561.33
469.962	381.52
470.172	-124.12
470.382	-97.09
470.592	534.3
470.802	533.68
471.012	100.95
471.222	-69.03
471.432	478.8
471.642	525.08
471.852	52
472.062	-112.25
472.272	229.36
472.482	43.2
472.691	-106.51
472.901	-138.05
473.111	324.38
473.321	809.34
473.531	-117.98
473.741	57.53
473.95	478.59
474.16	508.49
474.37	84.56
474.58	-151.16
474.79	802.99
474.999	494.36
475.209	-81.94
475.419	-20.09
475.628	256.59
475.838	649.39
476.048	35.41
476.258	-130.88
476.467	609.87
476.677	210.31
476.886	194.34
477.096	92.14
477.306	230.38
477.515	679.29
477.725	111.19
477.935	128.39
478.144	752.2
478.354	251.06
478.563	58.96
478.773	-46.71
478.982	559.28
479.192	605.36
479.401	126.34
479.611	-5.96
479.82	171.6
480.03	482.28
480.239	-27.87
480.449	-63.09
480.658	782.92
480.868	264.79
481.077	170.37
481.287	56.51
481.496	512.38
481.705	757.94
481.915	354.49
482.124	327.04
482.333	574.23
482.543	810.16
482.752	211.74
482.961	33.36
483.171	594.71
483.38	429.24
483.589	164.03
483.799	36.44
484.008	426.98
484.217	611.71
484.426	158.7
484.636	-5.55
484.845	748.31
485.054	206.42
485.263	442.14
485.472	141.91
485.682	836.99
485.891	576.69
486.1	4.49
486.309	99.92
486.518	713.5
486.727	933.24
486.936	89.48
487.146	303.08
487.355	884.91
487.564	304.31
487.773	223.62
487.982	180.61
488.191	424.12
488.4	624.61
488.609	203.35
488.818	246.97
489.027	1048.54
489.236	951.06
489.445	255.77
489.654	142.32
489.863	872.83
490.072	578.33
490.281	655.74
490.49	319.47
490.698	1011.27
490.907	1055.71
491.116	322.13
491.325	157.88
491.534	953.11
491.743	661.48
491.952	404.25
492.16	365.95
492.369	844.36
492.578	963.35
492.787	423.5
492.996	198.02
493.204	559.08
493.413	1160.36
493.622	193.93
493.831	172.42
494.039	1194.97
494.248	457.29
494.457	303.49
494.665	217.07
494.874	897.2
495.083	1280.99
495.291	346.5
495.5	332.16
495.709	987.92
495.917	863.61
496.126	548.43
496.335	360.02
496.543	730.08
496.752	890.85
496.96	736.23
497.169	276.66
497.377	791.93
497.586	1085
497.794	569.93
498.003	271.75
498.211	781.9
498.42	1189.24
498.628	557.44
498.837	412.85
499.045	984.65
499.254	874.06
499.462	529.38
499.671	436.81
499.879	1445.64
500.087	1170.6
500.296	436.81
500.504	546.18
500.713	1008.2
500.921	1451.38
501.129	547
501.338	551.5
501.546	1040.56
501.754	961.09
501.962	596.15
502.171	506.04
502.379	1113.46
502.587	1330.96
502.795	704.48
503.004	648.98
503.212	1095.24
503.42	1297.78
503.628	647.35
503.837	779.44
504.045	1188.21
504.253	1485.17
504.461	636.9
504.669	502.14
504.877	1295.12
505.085	1360.24
505.294	545.77
505.502	890.64
505.71	1183.09
505.918	1238.18
506.126	582.83
506.334	666.6
506.542	1080.29
506.75	1190.06
506.958	892.49
507.166	750.56
507.374	983.01
507.582	1532.68
507.79	874.47
507.998	692.61
508.206	1394.85
508.414	1300.85
508.622	736.23
508.83	783.13
509.037	1350.62
509.245	1090.53
509.453	718.62
509.661	692.2
509.869	1409.4
510.077	1121.86
510.285	1003.69
510.492	539.21
510.7	1765.33
510.908	1129.03
511.116	872.42
511.324	812
511.531	1105.68
511.739	1311.91
511.947	1078.24
512.155	1207.87
512.362	1322.77
512.57	984.24
512.778	793.37
512.985	694.65
513.193	1457.73
513.401	1684.03
513.608	944.1
513.816	875.49
514.024	1476.98
514.231	1584.09
514.439	915.42
514.646	943.07
514.854	1579.79
515.061	1604.16
515.269	976.86
515.477	947.99
515.684	1145.62
515.892	1603.75
516.099	812
516.307	843.34
516.514	1614.4
516.722	1793.18
516.929	989.77
517.136	886.34
517.344	1702.25
517.551	1551.52
517.759	923.82
517.966	1052.43
518.173	1295.53
518.381	1413.49
518.588	1099.33
518.796	962.32
519.003	1649.83
519.21	1470.42
519.418	1005.95
519.625	1383.8
519.832	1437.04
520.039	1562.17
520.247	852.76
520.454	1079.47
520.661	1692.42
520.868	1599.65
521.076	1097.69
521.283	1150.94
521.49	2115.33
521.697	1618.49
521.904	1171.42
522.112	1158.52
522.319	1734.41
522.526	1608.05
522.733	1083.36
522.94	1111.62
523.147	1555.01
523.354	1707.99
523.561	988.13
523.768	1257.23
523.975	1863.84
524.183	1599.24
524.39	1352.46
524.597	1049.57
524.804	1542.31
525.011	1387.89
525.218	1156.88
525.425	1155.86
525.632	1945.96
525.838	1409.6
526.045	1172.45
526.252	1227.13
526.459	2545.4
526.666	2650.26
526.873	1172.24
527.08	1180.64
527.287	1941.66
527.494	1837.01
527.701	1081.92
527.907	1137.02
528.114	1773.32
528.321	1627.5
528.528	1239
528.735	1239.41
528.941	1528.18
529.148	1504.42
529.355	1325.63
529.562	1224.87
529.768	2055.32
529.975	1568.52
530.182	1330.96
530.388	1219.55
530.595	1916.47
530.802	1374.17
531.008	1485.37
531.215	1320.1
531.422	2449.56
531.628	2494.61
531.835	1363.93
532.042	1366.59
532.248	1607.02
532.455	1780.08
532.661	1325.84
532.868	1307.82
533.074	1851.14
533.281	2007.81
533.487	1389.73
533.694	1314.98
533.9	1570.57
534.107	1850.12
534.313	1341.81
534.52	1268.29
534.726	1964.19
534.933	2271.79
535.139	1276.69
535.345	1257.44
535.552	1973
535.758	1834.35
535.965	1476.57
536.171	1336.69
536.377	2003.92
536.584	2227.56
536.79	1413.9
536.996	1549.27
537.203	1941.25
537.409	2042.83
537.615	1433.97
537.821	1386.66
538.028	2115.74
538.234	2004.94
538.44	1467.15
538.646	1547.02
538.853	1967.67
539.059	1796.87
539.265	1937.77
539.471	1284.88
539.677	2117.17
539.883	1759.6
540.09	1482.51
540.296	1894.56
540.502	1910.33
540.708	1754.48
540.914	1715.57
541.12	1497.66
541.326	2088.71
541.532	1972.38
541.738	1656.18
541.944	1620.75
542.15	2205.44
542.356	1857.9
542.562	1482.1
542.768	1602.52
542.974	2515.91
543.18	2473.93
543.386	1522.44
543.592	1405.09
543.798	2395.7
544.004	2288.38
544.21	1559.72
544.415	1711.27
544.621	2157.31
544.827	2338.97
545.033	1540.87
545.239	1871.62
545.445	1769.84
545.651	2097.1
545.856	1599.45
546.062	1555.62
546.268	1915.45
546.474	2080.92
546.679	1639.38
546.885	1681.57
547.091	1885.75
547.297	2530.86
547.502	1758.57
547.708	1479.85
547.914	1888.01
548.119	2264.83
548.325	1543.95
548.531	1550.3
548.736	2500.76
548.942	1869.57
549.147	1646.75
549.353	1940.43
549.559	2385.66
549.764	2226.94
549.97	1654.13
550.175	1694.88
550.381	2264.22
550.586	1929.17
550.792	1726.83
550.997	1721.3
551.203	2255.41
551.408	2357.6
551.614	1583.06
551.819	1651.06
552.025	2561.79
552.23	2504.44
552.435	1664.37
552.641	1977.71
552.846	1980.16
553.052	2514.27
553.257	1956
553.462	1760.01
553.668	2019.08
553.873	2430.92
554.078	1751.82
554.283	1725.19
554.489	2298.42
554.694	2155.47
554.899	1678.5
555.105	1978.32
555.31	2342.04
555.515	2419.86
555.72	1912.38
555.925	2379.72
556.131	2451.2
556.336	2090.34
556.541	1790.93
556.746	1740.55
556.951	2561.79
557.156	2532.09
557.361	1976.27
557.567	2004.74
557.772	2702.07
557.977	2415.15
558.182	1834.35
558.387	1812.84
558.592	2103.66
558.797	2656.61
559.002	1936.13
559.207	1987.74
559.412	2324.02
559.617	2746.92
559.822	1870.19
560.027	1809.98
560.232	2342.04
560.437	2492.36
560.642	1709.22
560.847	1849.5
561.051	2323.4
561.256	2357.6
561.461	1955.38
561.666	1771.48
561.871	2340.81
562.076	2490.11
562.281	1944.94
562.485	1796.46
562.69	2506.7
562.895	2503.01
563.1	1942.69
563.305	1814.48
563.509	2644.73
563.714	2819.22
563.919	1894.97
564.123	1937.16
564.328	2291.25
564.533	2717.64
564.737	1998.6
564.942	1921.8
565.147	2735.66
565.351	2763.51
565.556	2077.85
565.761	2059.22
565.965	2488.67
566.17	2235.34
566.374	1961.12
566.579	1909.3
566.784	2483.15
566.988	2370.71
567.193	1827.59
567.397	2136.22
567.602	2089.94
567.806	2422.53
568.011	2043.24
568.215	2057.17
568.42	2360.06
568.624	2435.22
568.828	2009.04
569.033	2196.63
569.237	2636.33
569.442	2635.1
569.646	1894.35
569.85	2029.32
570.055	2445.46
570.259	2554.21
570.463	2322.99
570.668	2097.72
570.872	2433.58
571.076	2388.53
571.281	2209.33
571.485	2168.17
571.689	2554.82
571.893	2687.74
572.098	2255.41
572.302	2084
572.506	2647.6
572.71	2586.57
572.914	2129.05
573.119	2094.85
573.323	2832.94
573.527	2869.8
573.731	2140.11
573.935	2071.5
574.139	2558.92
574.343	2415.97
574.547	2166.32
574.751	2267.7
574.955	2796.69
575.159	2813.69
575.364	2191.92
575.568	2126.18
575.772	2533.93
575.976	2789.11
576.18	2106.52
576.383	2070.68
576.587	2834.99
576.791	2719.28
576.995	2011.09
577.199	2079.08
577.403	2738.53
577.607	2821.47
577.811	2084.2
578.015	2325.45
578.219	2703.92
578.422	2796.69
578.626	2322.38
578.83	2453.45
579.034	2970.77
579.238	2697.16
579.442	2197.86
579.645	2689.79
579.849	2609.91
580.053	2745.9
580.257	2280.81
580.46	2342.65
580.664	2897.65
580.868	2851.98
581.071	2491.54
581.275	2392.22
581.479	2373.37
581.682	2823.72
581.886	2189.88
582.09	2423.55
582.293	2890.49
582.497	2944.96
582.7	2496.25
582.904	2267.9
583.107	2772.93
583.311	2653.54
583.515	2358.63
583.718	2402.25
583.922	2900.93
584.125	3260.96
584.329	2299.85
584.532	2496.66
584.735	3117.4
584.939	2840.31
585.142	2214.04
585.346	2291.66
585.549	2848.71
585.753	2614.22
585.956	2398.36
586.159	2576.94
586.363	3169.83
586.566	2937.79
586.769	2325.25
586.973	2311.73
587.176	2887.82
587.379	3055.14
587.582	2737.91
587.786	2649.03
587.989	2837.24
588.192	3513.48
588.395	2492.57
588.599	2818.4
588.802	2942.3
589.005	3016.64
589.208	2506.7
589.411	2441.78
589.615	3028.93
589.818	3263.63
590.021	2782.15
590.224	2616.26
590.427	3150.58
590.63	3042.24
590.833	2334.67
591.036	2442.8
591.239	2835.6
591.442	2787.47
591.645	2739.55
591.848	2483.15
592.051	2957.66
592.254	3144.64
592.457	2613.6
592.66	2615.44
592.863	2920.39
593.066	3116.58
593.269	2538.64
593.472	2655.38
593.675	2723.99
593.878	3126.41
594.081	2663.98
594.284	2490.11
594.486	3066.82
594.689	2981.01
594.892	2718.05
595.095	2699.62
595.298	3127.23
595.5	2842.97
595.703	2694.09
595.906	2724.81
596.109	3250.11
596.311	3185.8
596.514	2382.38
596.717	2675.65
596.92	3318.72
597.122	3117.4
597.325	2372.55
597.528	2579.6
597.73	3344.11
597.933	3101.22
598.136	2632.85
598.338	2386.07
598.541	3200.55
598.743	3327.11
598.946	2728.49
599.148	2680.16
599.351	3323.02
599.554	3226.97
599.756	2783.17
599.959	2711.9
600.161	3329.78
600.363	3619.36
600.566	2928.17
600.768	2660.09
600.971	3397.15
601.173	3266.9
601.376	2683.64
601.578	2741.8
601.78	3139.72
601.983	3635.33
602.185	2655.58
602.388	2923.87
602.59	3163.48
602.792	2995.55
602.995	2839.49
603.197	2707.81
603.399	3336.53
603.601	3261.37
603.804	2723.78
604.006	2701.25
604.208	3007.83
604.41	2634.08
604.613	2907.48
604.815	2715.38
605.017	3571.44
605.219	2969.74
605.421	3225.94
605.623	2735.86
605.826	3429.51
606.028	3548.91
606.23	2712.31
606.432	2717.84
606.634	3486.24
606.836	3390.19
607.038	2615.03
607.24	2876.36
607.442	3217.96
607.644	3155.08
607.846	2848.3
608.048	2658.86
608.25	3487.06
608.452	2934.31
608.654	2798.94
608.856	2538.24
609.058	3094.26
609.26	3291.89
609.462	2879.22
609.664	2846.05
609.866	3462.48
610.067	3333.87
610.269	2899.91
610.471	2786.65
610.673	3044.7
610.875	3321.58
611.077	2626.91
611.278	2859.56
611.48	3150.37
611.682	3535.6
611.884	2888.44
612.085	2832.32
612.287	2885.98
612.489	3217.14
612.69	2591.07
612.892	2819.01
613.094	3453.27
613.295	3251.54
613.497	2617.49
613.699	2806.93
613.9	3493.61
614.102	3293.12
614.304	2821.26
614.505	2624.45
614.707	3125.39
614.908	3173.52
615.11	2644.12
615.311	2865.71
615.513	3311.14
615.714	3286.36
615.916	2609.1
616.117	2823.31
616.319	3111.05
616.52	3376.06
616.722	2748.97
616.923	2741.19
617.124	3462.69
617.326	3300.69
617.527	2916.7
617.729	2976.91
617.93	3280.01
618.131	3335.51
618.333	2706.17
618.534	2817.78
618.735	3080.33
618.937	3496.28
619.138	2682.41
619.339	2620.56
619.54	3271.2
619.742	3055.76
619.943	2879.84
620.144	2833.35
620.345	3355.99
620.546	3285.95
620.748	2762.69
620.949	2815.53
621.15	3347.18
621.351	3176.18
621.552	2736.89
621.753	2583.09
621.954	2753.07
622.155	3622.43
622.356	2641.45
622.558	2985.92
622.759	3161.23
622.96	3551.57
623.161	2780.31
623.362	2728.49
623.563	3138.09
623.764	3165.12
623.965	2737.09
624.166	2966.67
624.366	3051.46
624.567	3187.85
624.768	2532.91
624.969	2703.1
625.17	3047.36
625.371	3257.69
625.572	2895.61
625.773	2692.45
625.973	3302.74
626.174	3350.87
626.375	2851.37
626.576	2839.7
626.777	3250.52
626.977	3620.38
627.178	2843.38
627.379	2891.31
627.58	3086.68
627.78	3130.92
627.981	2794.85
628.182	2870.01
628.382	3345.34
628.583	2749.38
628.784	2650.46
628.984	2893.97
629.185	3306.22
629.386	3323.84
629.586	2893.56
629.787	2697.77
629.987	3248.88
630.188	3163.89
630.388	2766.38
630.589	2914.86
630.79	3737.32
630.99	3140.75
631.191	2853.01
631.391	2910.35
631.591	3289.23
631.792	3476
631.992	2906.05
632.193	2838.26
632.393	3506.11
632.594	3160.61
632.794	2713.95
632.994	2882.29
633.195	3052.89
633.395	3058.01
633.595	2723.99
633.796	2936.57
633.996	2996.16
634.196	3378.52
634.397	2596.19
634.597	2809.8
634.797	2884.34
634.997	3507.95
635.198	2994.32
635.398	2657.43
635.598	3231.68
635.798	3372.17
635.998	3120.06
636.199	2670.74
636.399	2924.28
636.599	2831.09
636.799	2756.96
636.999	3043.06
637.199	3202.8
637.399	3333.87
637.599	2683.03
637.799	2860.38
637.999	2985.92
638.199	3379.54
638.399	2684.26
638.599	2712.11
638.799	3204.44
638.999	3496.48
639.199	2885.78
639.399	2813.28
639.599	3382.2
639.799	2851.98
639.999	2596.4
640.199	2626.3
640.399	3080.54
640.599	3150.17
640.799	2799.15
640.998	2933.7
641.198	3275.91
641.398	3153.24
641.598	2803.86
641.798	2724.6
641.997	4046.15
642.197	3063.54
642.397	2858.74
642.597	2664.8
642.796	3163.89
642.996	3261.58
643.196	2880.25
643.395	2559.94
643.595	3099.38
643.795	2628.96
643.994	2654.36
644.194	2734.43
644.394	3244.38
644.593	3129.69
644.793	2529.22
644.992	2781.53
645.192	3211.81
645.392	2590.05
645.591	2790.55
645.791	2671.35
645.99	3238.23
646.19	2930.42
646.389	2666.03
646.589	2674.43
646.788	3090.78
646.987	3148.94
647.187	2936.36
647.386	2874.92
647.586	2953.56
647.785	3238.64
647.984	2630.8
648.184	2691.83
648.383	2871.64
648.582	2851.17
648.782	2589.43
648.981	2766.58
649.18	2735.66
649.38	2939.43
649.579	2669.1
649.778	2553.39
649.977	3128.05
650.177	3072.14
650.376	2525.74
650.575	2483.96
650.774	3276.94
650.973	3054.94
651.173	2423.34
651.372	2705.96
651.571	2901.14
651.77	3190.51
651.969	2608.69
652.168	2704.53
652.367	2661.32
652.566	2902.77
652.765	2582.47
652.964	2967.28
653.163	3339.61
653.362	2905.64
653.561	2565.68
653.76	2554.82
653.959	2874.1
654.158	3108.8
654.357	2783.58
654.556	2588
654.755	3061.29
654.954	3054.12
655.153	2605.41
655.352	2668.49
655.551	3203.21
655.749	2753.27
655.948	2664.8
656.147	2667.26
656.346	2971.59
656.545	2843.59
656.743	2635.92
656.942	2669.31
657.141	2904
657.34	2685.48
657.538	2582.68
657.737	2580.63
657.936	2842.36
658.135	2957.05
658.333	2548.07
658.532	2717.84
658.731	3273.46
658.929	3066.2
659.128	2901.95
659.326	2533.73
659.525	3112.9
659.724	2885.16
659.922	2342.45
660.121	2373.99
660.319	2902.77
660.518	2615.85
660.716	2480.07
660.915	2447.92
661.113	3140.34
661.312	2577.35
661.51	2635.31
661.709	2423.96
661.907	2997.59
662.105	3161.43
662.304	2494.82
662.502	2564.45
662.701	3110.85
662.899	2727.47
663.097	2902.98
663.296	2419.86
663.494	3055.76
663.692	3169.01
663.891	2399.79
664.089	2343.06
664.287	2871.24
664.485	3096.92
664.684	2400.41
664.882	2607.25
665.08	2775.8
665.278	2791.57
665.476	2380.54
665.675	2769.45
665.873	3151.81
666.071	3019.71
666.269	2431.33
666.467	2689.38
666.665	2858.13
666.863	2646.57
667.061	2576.53
667.259	2423.34
667.457	2717.23
667.655	2947.83
667.853	2231.04
668.051	2550.73
668.249	2550.73
668.447	3105.11
668.645	2317.26
668.843	2626.09
669.041	2887.82
669.239	2546.84
669.437	2544.38
669.635	2517.35
669.833	2616.26
670.031	2795.26
670.229	2450.17
670.426	2439.93
670.624	2548.07
670.822	2508.54
671.02	2263.81
671.218	2426.21
671.415	2405.53
671.613	2670.74
671.811	2481.1
672.009	2345.73
672.206	2834.17
672.404	2624.45
672.602	2589.64
672.799	2450.17
672.997	2774.98
673.195	2806.11
673.392	2412.49
673.59	2198.68
673.788	2769.45
673.985	2079.29
674.183	2400.2
674.38	2302.51
674.578	2806.11
674.775	2466.56
674.973	2192.13
675.17	2192.33
675.368	2877.38
675.565	2851.78
675.763	2283.06
675.96	2233.91
676.158	2782.76
676.355	2531.89
676.553	2231.65
676.75	2277.53
676.947	2545.81
677.145	2515.91
677.342	2372.55
677.539	2411.67
677.737	2729.52
677.934	3028.31
678.131	2433.99
678.329	2231.86
678.526	3079.51
678.723	2753.68
678.92	2412.29
679.118	2314.8
679.315	2309.27
679.512	2841.54
679.709	2331.39
679.906	2341.63
680.104	2875.74
680.301	2572.85
680.498	2146.66
680.695	2265.24
680.892	2440.34
681.089	2483.15
681.286	2436.45
681.483	2158.95
681.68	2681.8
681.877	2806.52
682.075	2337.12
682.272	2548.88
682.469	2791.98
682.665	2585.75
682.862	2218.96
683.059	2136.22
683.256	2726.44
683.453	2723.58
683.65	2459.8
683.847	2465.53
684.044	2693.47
684.241	2506.08
684.438	2558.1
684.635	2302.31
684.831	3166.76
685.028	3195.84
685.225	2364.57
685.422	2656.2
685.619	2704.94
685.815	2793
686.012	2597.63
686.209	2498.91
686.405	2510.59
686.602	2911.78
686.799	2412.9
686.996	2428.26
687.192	2622.82
687.389	3375.85
687.586	2491.13
687.782	2563.63
687.979	3281.85
688.175	3104.5
688.372	2621.38
688.568	2627.94
688.765	2746.51
688.962	3144.02
689.158	2787.27
689.355	2419.04
689.551	3057.4
689.748	2844.41
689.944	2701.25
690.14	2541.92
690.337	3155.29
690.533	2963.8
690.73	2848.5
690.926	2763.31
691.123	3058.42
691.319	2951.52
691.515	2529.22
691.712	2827.2
691.908	3120.27
692.104	3081.97
692.301	2842.97
692.497	2553.39
692.693	3150.37
692.889	3093.23
693.086	2844
693.282	2542.74
693.478	2994.52
693.674	3473.34
693.87	2778.46
694.067	2580.83
694.263	3014.8
694.459	2923.46
694.655	2933.7
694.851	2809.8
695.047	3197.27
695.243	3217.34
695.439	2891.71
695.635	2704.12
695.831	3161.23
696.027	2997.8
696.224	2730.33
696.42	3174.33
696.615	3389.99
696.811	3241.1
697.007	2605.2
697.203	2764.33
697.399	3217.34
697.595	3257.69
697.791	2693.68
697.987	2848.09
698.183	2842.15
698.379	2907.28
698.575	2768.02
698.77	2855.88
698.966	3231.27
699.162	3346.98
699.358	2838.26
699.554	2820.04
699.749	3260.55
699.945	3261.78
700.141	2906.26
700.337	2864.48
700.532	3014.18
700.728	2840.31
700.924	2666.23
701.119	2582.47
701.315	3178.84
701.511	3028.93
701.706	2860.38
701.902	2566.91
702.097	3102.04
702.293	3180.89
702.489	2788.5
702.684	2683.44
702.88	3080.95
703.075	3010.91
703.271	2810.62
703.466	2646.16
703.662	3000.05
703.857	3123.75
704.053	2702.48
704.248	2780.92
704.443	3286.56
704.639	3212.84
704.834	2828.64
705.03	2718.25
705.225	3221.03
705.42	3362.13
705.616	2894.79
705.811	2651.28
706.006	2984.28
706.202	2975.48
706.397	2882.09
706.592	2616.88
706.787	3157.95
706.983	3022.58
707.178	3042.04
707.373	2863.25
707.568	3222.87
707.763	3284.72
707.959	2667.87
708.154	2737.3
708.349	3094.87
708.544	3205.05
708.739	3000.26
708.934	2637.15
709.129	3225.33
709.324	3362.34
709.519	2740.57
709.714	2603.98
709.909	3313.39
710.104	3032
710.299	2746.31
710.494	2866.73
710.689	3203.62
710.884	3039.58
711.079	2849.32
711.274	2914.04
711.469	3222.26
711.664	3161.64
711.859	2742.21
712.054	2851.17
712.249	3208.13
712.443	3267.11
712.638	2565.47
712.833	2666.23
713.028	3061.7
713.223	2959.91
713.417	3063.13
713.612	2652.31
713.807	3293.12
714.002	3775.62
714.196	2977.32
714.391	2651.08
714.586	3189.9
714.78	3075.62
714.975	2731.36
715.17	2727.67
715.364	2967.08
715.559	3311.75
715.754	2406.76
715.948	2595.17
716.143	3498.12
716.337	3042.85
716.532	3062.11
716.726	2744.88
716.921	3164.71
717.115	3437.09
717.31	2545.4
717.504	3414.15
717.699	2972.2
717.893	3255.43
718.088	2585.54
718.282	2559.94
718.476	3060.26
718.671	3232.09
718.865	2714.57
719.059	2696.75
719.254	2980.19
719.448	3421.32
719.642	2933.49
719.837	2483.76
720.031	3219.19
720.225	3243.97
720.419	2745.69
720.614	2614.01
720.808	3150.78
721.002	2992.27
721.196	2624.05
721.39	2731.77
721.585	3263.63
721.779	3197.89
721.973	2757.16
722.167	2492.16
722.361	3049.2
722.555	3356.6
722.749	2671.56
722.943	2661.93
723.137	2731.56
723.331	3062.52
723.525	2729.93
723.719	2639
723.913	3154.67
724.107	3381.79
724.301	2577.76
724.495	2742.01
724.689	3455.32
724.883	3194.81
725.077	2597.83
725.271	2627.32
725.465	3175.15
725.659	2951.72
725.853	2801.6
726.046	2452.22
726.24	2827
726.434	3149.55
726.628	2660.09
726.822	2678.93
727.015	3260.55
727.209	3362.75
727.403	2682.41
727.596	2435.22
727.79	3185.19
727.984	3213.86
728.177	2632.85
728.371	2692.45
728.565	3181.09
728.758	2727.67
728.952	2558.1
729.146	2546.84
729.339	3213.86
729.533	2921.41
729.726	2649.64
729.92	2499.32
730.113	3268.54
730.307	3013.16
730.5	2711.29
730.694	2544.17
730.887	2890.28
731.081	3095.08
731.274	2539.05
731.468	2702.69
731.661	2918.75
731.854	2809.18
732.048	2585.75
732.241	2507.31
732.435	2752.86
732.628	2907.69
732.821	2730.74
733.014	2488.06
733.208	2669.1
733.401	3047.16
733.594	2642.27
733.788	2537.21
733.981	3179.66
734.174	3099.99
734.367	2623.02
734.56	2765.15
734.754	3208.13
734.947	2946.81
735.14	2540.69
735.333	2659.48
735.526	3231.06
735.719	2715.38
735.912	2535.37
736.105	2541.31
736.298	3024.01
736.491	2819.01
736.684	2559.53
736.877	2580.42
737.07	3051.05
737.263	3296.19
737.456	2552.37
737.649	2464.1
737.842	2827.61
738.035	2986.13
738.228	2672.38
738.421	2756.55
738.614	3280.01
738.807	3128.87
739	2369.28
739.192	2525.13
739.385	3092.62
739.578	3063.95
739.771	2903.59
739.964	2521.85
740.156	3021.15
740.349	2886.19
740.542	2830.69
740.735	2402.05
740.927	2572.23
741.12	2631.42
741.313	2436.45
741.505	2744.88
741.698	3020.53
741.891	3013.16
742.083	2768.43
742.276	2533.53
742.468	2980.8
742.661	2868.37
742.854	2563.84
743.046	2508.95
743.239	3176.59
743.431	2851.37
743.624	2574.89
743.816	2333.23
744.009	2798.33
744.201	2913.63
744.393	2770.07
744.586	2377.88
744.778	3068.66
744.971	2859.77
745.163	2577.97
745.355	2698.8
745.548	2826.79
745.74	2796.69
745.932	2550.11
746.125	2475.57
746.317	3352.3
746.509	2901.34
746.702	2503.22
746.894	2606.23
747.086	2972.61
747.278	3104.7
747.471	2704.94
747.663	2639.81
747.855	2900.32
748.047	3274.89
748.239	2454.88
748.431	2463.48
748.623	3275.3
748.815	3177.82
749.008	2329.14
749.2	2469.01
749.392	2930.01
749.584	3000.67
749.776	2530.45
749.968	2614.22
750.16	3225.94
750.352	2741.19
750.544	2526.36
750.736	2408.19
750.928	2878.61
751.12	2872.46
751.311	2471.27
751.503	2572.03
751.695	2807.54
751.887	2866.73
752.079	2252.34
752.271	2412.29
752.463	3485.22
752.654	2928.37
752.846	2449.56
753.038	2421.3
753.23	2670.53
753.421	2873.28
753.613	2474.95
753.805	2702.69
753.997	2909.53
754.188	2965.44
754.38	2349.41
754.572	2465.53
754.763	2618.11
754.955	2870.42
755.146	2502.19
755.338	2458.57
755.53	2902.16
755.721	2744.06
755.913	2174.72
756.104	2286.54
756.296	2657.43
756.487	2940.25
756.679	2269.95
756.87	2398.15
757.062	2605
757.253	2815.12
757.445	2321.36
757.636	2511.41
757.827	2725.42
758.019	3329.98
758.21	2243.94
758.401	2358.42
758.593	3265.06
758.784	3049.41
758.975	2192.33
759.167	2232.88
759.358	2651.69
759.549	2974.86
759.74	2359.65
759.932	2313.57
760.123	2915.06
760.314	2539.46
760.505	2473.52
760.696	2291.25
760.888	3027.5
761.079	2584.31
761.27	2223.67
761.461	2060.44
761.652	3016.03
761.843	2609.5
762.034	2356.99
762.225	2703.51
762.416	2638.38
762.607	2612.37
762.798	2244.76
762.989	2306.61
763.18	3762.1
763.371	2556.87
763.562	2295.55
763.753	2270.36
763.944	2760.03
764.135	2744.06
764.326	2481.92
764.517	2304.97
764.708	2679.95
764.899	2748.77
765.089	2116.15
765.28	2073.35
765.471	2547.25
765.662	2711.49
765.853	2311.32
766.043	2070.68
766.234	2729.11
766.425	2739.55
766.615	2238
766.806	2031.98
766.997	2857.31
767.187	2636.33
767.378	2115.74
767.569	2022.15
767.759	2630.39
767.95	2399.18
768.141	2431.33
768.331	2128.85
768.522	2658.04
768.712	2652.1
768.903	2100.38
769.093	2128.23
769.284	2818.19
769.474	2632.85
769.665	2006.58
769.855	1900.91
770.046	2752.66
770.236	2448.74
770.426	2341.43
770.617	2073.35
770.807	2612.78
770.998	2554.41
771.188	2378.08
771.378	2130.89
771.569	2674.63
771.759	2590.46
771.949	1934.9
772.139	1794.41
772.33	2495.43
772.52	2597.01
772.71	2006.38
772.9	1965.01
773.09	2755.73
773.281	2880.86
773.471	2040.17
773.661	2082.77
773.851	2604.59
774.041	2364.98
774.231	1982.21
774.421	2356.58
774.611	2775.8
774.802	2418.84
774.992	2136.83
775.182	1894.97
775.372	2476.59
775.562	2665.82
775.752	2089.53
775.942	2098.95
776.131	2718.87
776.321	2588.21
776.511	1968.08
776.701	1994.7
776.891	2790.14
777.081	2176.56
777.271	2123.93
777.461	2008.43
777.651	2680.98
777.84	2646.78
778.03	2182.5
778.22	2014.98
778.41	2620.15
778.599	2181.89
778.789	2103.86
778.979	1920.98
779.169	2421.09
779.358	2309.27
779.548	2353.71
779.738	1817.56
779.927	2474.75
780.117	2029.93
780.307	2007.2
780.496	1668.05
780.686	2488.67
780.875	2849.32
781.065	1949.24
781.254	1953.54
781.444	2373.78
781.633	2357.81
781.823	1864.86
782.012	1923.23
782.202	2203.19
782.391	2285.11
782.581	1829.64
782.77	2168.37
782.96	2546.43
783.149	2226.94
783.338	1891.49
783.528	1664.98
783.717	2574.48
783.906	2574.69
784.096	2082.36
784.285	1742.39
784.474	2195.61
784.663	2072.32
784.853	1839.06
785.042	1965.62
785.231	2170.42
785.42	2441.57
785.61	2086.25
785.799	1779.26
785.988	2326.89
786.177	2156.29
786.366	1977.91
786.555	2168.78
786.744	2473.11
786.933	2251.93
787.122	1737.07
787.312	1724.17
787.501	2045.7
787.69	2348.59
787.879	1808.54
788.068	1788.27
788.257	1928.56
788.445	2111.03
788.634	1876.54
788.823	1697.34
789.012	2796.69
789.201	2550.93
789.39	1927.33
789.579	1779.87
789.768	2251.93
789.957	2237.18
790.145	1831.48
790.334	1480.66
790.523	2014.98
790.712	2158.75
790.9	1909.1
791.089	1665.39
791.278	2367.03
791.467	2249.47
791.655	2184.96
791.844	2448.53
792.033	2057.37
792.221	2170.42
792.41	1948.42
792.599	1553.16
792.787	2285.11
792.976	2320.33
793.164	1640.61
793.353	1814.48
793.541	2307.63
793.73	2330.78
793.918	1819.81
794.107	1762.87
794.295	2178.61
794.484	2109.8
794.672	1826.36
794.861	1735.43
795.049	2253.98
795.238	2632.03
795.426	1627.3
795.614	1848.27
795.803	2290.02
795.991	2517.14
796.179	1729.7
796.368	1692.42
796.556	2395.08
796.744	1873.26
796.932	1667.03
797.121	1667.64
797.309	2037.92
797.497	2318.08
797.685	1733.79
797.874	1651.67
798.062	2070.89
798.25	2489.08
798.438	1586.75
798.626	1736.66
798.814	2235.55
799.002	2628.76
799.19	1891.9
799.378	1841.11
799.566	2340.4
799.755	2471.68
799.943	2001.67
800.131	1756.32
800.318	2125.77
800.506	2209.74
800.694	1618.7
800.882	1864.45
801.07	2478.84
801.258	2075.19
801.446	1709.63
801.634	1779.26
801.822	2080.72
802.01	2115.94
802.197	1718.23
802.385	1900.5
802.573	2253.36
802.761	1923.84
802.949	1801.79
803.136	1496.02
803.324	2333.85
803.512	2208.31
803.699	1900.29
803.887	1495.82
804.075	2387.71
804.262	2004.94
804.45	1611.53
804.638	1905.41
804.825	1854.21
805.013	1924.46
805.201	1781.72
805.388	1622.79
805.576	2061.47
805.763	2457.34
805.951	1793.8
806.138	1859.95
806.326	2562.4
806.513	2164.69
806.701	1783.56
806.888	1664.16
807.075	2235.55
807.263	2513.25
807.45	1590.23
807.638	1913.2
807.825	2581.65
808.012	2372.15
808.2	1872.85
808.387	2104.68
808.574	2247.83
808.761	2479.25
808.949	1652.69
809.136	1819.4
809.323	2032.18
809.51	2112.87
809.698	2140.72
809.885	2005.76
810.072	2242.71
810.259	2399.59
810.446	1870.8
810.633	1715.36
810.82	2348.18
811.008	2554.41
811.195	1988.56
811.382	1826.16
811.569	2226.12
811.756	1792.98
811.943	1849.71
812.13	1713.72
812.317	2004.53
812.504	1952.11
812.691	1869.37
812.878	1945.76
813.064	2496.25
813.251	2130.08
813.438	1684.85
813.625	1963.78
813.812	2082.97
813.999	2059.22
814.186	1936.13
814.372	1798.3
814.559	2183.32
814.746	2503.01
814.933	1722.94
815.12	1949.44
815.306	2012.93
815.493	1800.76
815.68	1721.3
815.866	1787.45
816.053	2428.46
816.24	2543.36
816.426	1846.84
816.613	1585.32
816.799	2240.05
816.986	2446.08
817.173	1765.13
817.359	1726.22
817.546	2205.85
817.732	1793.18
817.919	1484.35
818.105	1898.25
818.292	2023.99
818.478	2172.26
818.665	1920.36
818.851	1628.53
819.037	2765.15
819.224	2124.34
819.41	1583.06
819.597	1642.04
819.783	2656.2
819.969	2209.95
820.156	1732.15
820.342	1560.33
820.528	3073.37
820.714	1961.94
820.901	2037.71
821.087	1707.78
821.273	2463.69
821.459	1987.54
821.646	1590.23
821.832	1560.54
822.018	2139.91
822.204	2082.56
822.39	1698.36
822.576	1559.31
822.762	2161.41
822.948	2105.09
823.134	1929.58
823.32	1691.61
823.507	1783.35
823.693	2128.44
823.879	2209.13
824.065	1637.95
824.25	2054.1
824.436	1792.16
824.622	1650.65
824.808	1564.02
824.994	1954.97
825.18	1873.26
825.366	1547.43
825.552	1609.89
825.738	1949.44
825.923	2295.76
826.109	1860.15
826.295	1594.94
826.481	1905.41
826.667	1889.64
826.852	1858.92
827.038	1511.79
827.224	2255.62
827.409	2369.69
827.595	1395.26
827.781	1867.73
827.966	2315.83
828.152	2308.86
828.338	1671.54
828.523	1378.88
828.709	1866.91
828.894	2190.9
829.08	1625.87
829.266	1545.18
829.451	1987.95
829.637	2177.18
829.822	1750.79
830.008	1623.82
830.193	2259.51
830.378	2375.42
830.564	1723.76
830.749	1444.01
830.935	2033
831.12	2067.2
831.305	1687.92
831.491	1701.64
831.676	1585.32
831.861	2139.29
832.047	1620.34
832.232	1419.63
832.417	2200.32
832.602	2016.62
832.788	1513.23
832.973	1518.55
833.158	1883.91
833.343	1883.09
833.528	1709.22
833.714	1671.74
833.899	1973.41
834.084	2494.2
834.269	1835.58
834.454	1561.97
834.639	2111.64
834.824	1939.41
835.009	1710.45
835.194	1827.39
835.379	2146.66
835.564	2399.18
835.749	1852.17
835.934	1411.85
836.119	2150.15
836.304	1944.53
836.489	1503.81
836.674	1854.83
836.859	1737.48
837.044	2285.11
837.228	1637.13
837.413	1497.66
837.598	2010.47
837.783	2140.93
837.968	1567.5
838.152	1440.11
838.337	1427.83
838.522	2249.88
838.707	2082.97
838.891	1807.93
839.076	1970.33
839.261	2107.34
839.445	1689.56
839.63	1670.31
839.815	2367.23
839.999	1769.63
840.184	1482.3
840.368	1517.12
840.553	2079.08
840.737	2019.08
840.922	1358.81
841.106	1338.94
841.291	1579.79
841.475	1860.77
841.66	1471.04
841.844	1430.08
842.029	2572.23
842.213	1553.16
842.397	1478.21
842.582	1259.07
842.766	2070.68
842.951	2067.41
843.135	1488.45
843.319	1478.62
843.504	1945.14
843.688	2178.2
843.872	1170.4
844.056	1353.69
844.241	1968.7
844.425	1714.34
844.609	1669.69
844.793	1222.42
844.977	2087.89
845.161	1906.03
845.346	1296.14
845.53	1398.34
845.714	1761.85
845.898	2249.06
846.082	1172.45
846.266	1417.38
846.45	1744.85
846.634	1903.37
846.818	1374.58
847.002	1550.7
847.186	1929.37
847.37	1470.63
847.554	1282.63
847.738	1606.2
847.922	1849.5
848.106	1832.71
848.29	1269.52
848.473	1319.9
848.657	1916.27
848.841	1620.13
849.025	1395.88
849.209	1198.45
849.392	1920.57
849.576	1625.46
849.76	1056.33
849.944	1520.6
850.127	2131.92
850.311	1453.43
850.495	1231.63
850.678	1131.69
850.862	1966.44
851.046	2076.62
851.229	1687.1
851.413	1218.93
851.596	1774.14
851.78	1626.27
851.964	1520.6
852.147	1397.72
852.331	2500.55
852.514	2101.61
852.698	1497.66
852.881	1181.66
853.065	1861.79
853.248	1647.37
853.431	1449.33
853.615	1447.49
853.798	2388.53
853.982	1792.16
854.165	1510.56
854.348	1302.9
854.532	1311.91
854.715	1525.31
854.898	1328.5
855.081	1305.97
855.265	1997.37
855.448	2221.41
855.631	1214.84
855.814	1272.8
855.997	1830.66
856.181	1659.04
856.364	1379.09
856.547	1094.83
856.73	1757.96
856.913	1692.01
857.096	1097.08
857.279	1400.38
857.462	1567.7
857.645	1840.49
857.828	1470.01
858.011	1456.7
858.194	1497.87
858.377	1759.8
858.56	1108.14
858.743	1267.68
858.926	1429.67
859.109	1687.71
859.292	1206.65
859.475	1025.4
859.658	1867.12
859.841	1739.32
860.023	1125.34
860.206	1088.07
860.389	1621.56
860.572	1869.98
860.755	1263.37
860.937	1269.52
861.12	1519.99
861.303	1583.88
861.486	1266.45
861.668	1286.31
861.851	1627.3
862.034	1736.87
862.216	1372.53
862.399	1031.34
862.581	1738.09
862.764	1921.8
862.947	1260.51
863.129	1122.88
863.312	1259.89
863.494	1854.62
863.677	1602.93
863.859	914.4
864.042	1791.75
864.224	1758.37
864.406	1328.3
864.589	941.64
864.771	1574.05
864.954	1330.96
865.136	1231.22
865.318	958.43
865.501	1883.29
865.683	1046.29
865.865	1105.68
866.048	1095.85
866.23	1643.89
866.412	1509.54
866.594	995.5
866.777	1253.54
866.959	1577.53
867.141	1371.3
867.323	1471.86
867.505	1293.07
867.687	1472.27
867.869	1514.05
868.052	1119.2
868.234	1070.87
868.416	1498.48
868.598	1729.7
868.78	1213.2
868.962	951.47
869.144	1756.94
869.326	1663.55
869.508	1116.54
869.69	960.89
869.872	1297.37
870.054	1820.42
870.236	873.03
870.417	994.48
870.599	1434.18
870.781	1919.54
870.963	1284.26
871.145	1009.22
871.327	1270.34
871.508	1725.81
871.69	1147.66
871.872	1150.33
872.054	1444.01
872.235	1611.94
872.417	1227.54
872.599	943.28
872.78	1993.27
872.962	1462.23
873.144	872.21
873.325	1135.58
873.507	1866.91
873.689	1470.42
873.87	1005.54
874.052	1281.19
874.233	1411.65
874.415	1823.9
874.596	1170.19
874.778	1017.21
874.959	1527.56
875.141	1824.31
875.322	1125.34
875.503	1022.33
875.685	1566.27
875.866	1055.51
876.048	1035.03
876.229	1026.22
876.41	1432.74
876.592	1616.65
876.773	1100.56
876.954	922.59
877.136	1861.38
877.317	1321.13
877.498	893.1
877.679	1240.23
877.86	1584.7
878.042	1460.39
878.223	1102.61
878.404	1539.44
878.585	1661.5
878.766	2018.05
878.947	1466.94
879.128	1322.77
879.309	1680.14
879.49	1819.6
879.672	1294.09
879.853	1195.79
880.034	1316.42
880.215	1504.22
880.396	1217.71
880.576	1107.52
880.757	1343.45
880.938	1916.68
881.119	1009.43
881.3	1102.4
881.481	1362.29
881.662	2398.36
881.843	944.3
882.023	958.84
882.204	1666.82
882.385	1496.84
882.566	1087.25
882.747	1055.3
882.927	1481.28
883.108	1544.15
883.289	1010.66
883.469	1339.56
883.65	1427.83
883.831	1492.95
884.011	1376.42
884.192	1098.72
884.373	1749.36
884.553	1577.53
884.734	1338.54
884.914	1511.79
885.095	2410.65
885.275	1930.6
885.456	1490.49
885.636	996.93
885.817	1428.44
885.997	1544.56
886.178	1017.21
886.358	1219.75
886.538	1559.1
886.719	2746.1
886.899	1092.78
887.08	1216.48
887.26	1756.12
887.44	1219.55
887.621	1012.91
887.801	1263.99
887.981	2056.14
888.161	1730.72
888.342	1225.08
888.522	1214.22
888.702	1763.9
888.882	1828.61
889.062	1285.9
889.242	852.96
889.423	1925.69
889.603	1715.77
889.783	1302.9
889.963	1149.71
890.143	1643.27
890.323	1838.03
890.503	1157.09
890.683	1217.5
890.863	1468.38
891.043	1527.15
891.223	1283.85
891.403	1419.02
891.583	1592.07
891.763	1617.47
891.943	1262.56
892.122	1208.9
892.302	1539.03
892.482	1483.12
892.662	1359.22
892.842	1235.93
893.022	1609.07
893.201	1472.47
893.381	1319.9
893.561	1129.44
893.741	1759.39
893.92	1530.43
894.1	1364.75
894.28	1290.61
894.459	1809.57
894.639	1631.39
894.819	1172.04
894.998	1285.7
895.178	1632.62
895.357	1596.37
895.537	1095.24
895.716	983.42
895.896	1473.91
896.075	1989.79
896.255	1173.26
896.434	892.28
896.614	1900.29
896.793	1827.18
896.973	1339.35
897.152	1295.94
897.331	1525.11
897.511	1683.62
897.69	948.81
897.87	1262.97
898.049	1628.53
898.228	1478.62
898.407	1380.72
898.587	1331.37
898.766	1345.7
898.945	1678.29
899.124	1556.64
899.304	1239.82
899.483	1698.36
899.662	1970.74
899.841	1135.99
900.02	1086.23
900.199	1780.28
900.378	1594.53
900.557	1088.07
900.737	1054.69
900.916	1587.36
901.095	1626.07
901.274	1476.57
901.453	945.12
901.632	1232.45
901.811	1290.82
901.989	1069.64
902.168	1046.7
902.347	1701.23
902.526	1355.53
902.705	1174.7
902.884	1281.6
903.063	1910.94
903.242	1796.46
903.42	1055.92
903.599	1310.89
903.778	1679.73
903.957	1931.01
904.135	1304.95
904.314	1211.56
904.493	1568.32
904.672	1541.49
904.85	1214.84
905.029	1157.49
905.207	1559.51
905.386	2125.77
905.565	887.37
905.743	1103.02
905.922	1439.91
906.1	1607.64
906.279	935.5
906.457	1073.94
906.636	1329.32
906.814	1377.86
906.993	1133.33
907.171	955.36
907.35	1613.58
907.528	1787.86
907.707	1360.86
907.885	915.02
908.063	1789.29
908.242	1255.18
908.42	1056.33
908.598	783.74
908.777	1613.17
908.955	1215.25
909.133	1271.36
909.311	919.11
909.49	1278.12
909.668	1321.95
909.846	998.78
910.024	806.47
910.202	1372.33
910.38	1550.3
910.559	935.9
910.737	981.98
910.915	1425.16
911.093	1447.28
911.271	1019.67
911.449	1188.01
911.627	1465.92
911.805	1983.65
911.983	1041.17
912.161	903.96
912.339	1355.94
912.517	1714.34
912.695	1208.69
912.872	1070.25
913.05	1230.4
913.228	1518.55
913.406	1085.41
913.584	909.08
913.762	1609.28
913.939	1282.22
914.117	919.52
914.295	875.9
914.473	1408.99
914.65	1491.93
914.828	1004.72
915.006	882.86
915.184	1043.22
915.361	1456.7
915.539	1145.62
915.716	1250.47
915.894	1414.72
916.072	1527.77
916.249	1406.32
916.427	1150.12
916.604	1041.17
916.782	1524.49
916.959	881.22
917.137	957.61
917.314	1351.23
917.492	1355.12
917.669	1109.98
917.847	1016.39
918.024	1391.17
918.201	1082.74
918.379	1002.46
918.556	1007.79
918.733	1436.43
918.911	1124.32
919.088	1198.66
919.265	892.9
919.442	1336.28
919.62	1292.87
919.797	878.36
919.974	779.85
920.151	1392.19
920.328	1257.85
920.506	879.38
920.683	1550.09
920.86	992.84
921.037	1091.55
921.214	1017.41
921.391	835.35
921.568	1417.59
921.745	1035.44
921.922	989.77
922.099	858.08
922.276	1413.9
922.453	1222.42
922.63	795.82
922.807	1270.13
922.984	1290.41
923.161	1098.51
923.338	921.36
923.514	797.05
923.691	1257.23
923.868	1371.71
924.045	859.11
924.222	744.62
924.399	1279.76
924.575	1374.58
924.752	949.01
924.929	951.88
925.105	1202.96
925.282	924.85
925.459	949.63
925.635	926.69
925.812	1261.33
925.989	1023.56
926.165	966.83
926.342	633.42
926.518	975.23
926.695	1099.54
926.871	756.5
927.048	698.95
927.224	1424.55
927.401	1008.2
927.577	957.2
927.754	633.01
927.93	1425.37
928.107	1352.46
928.283	713.09
928.459	951.88
928.636	1312.94
928.812	1088.89
928.988	719.84
929.165	596.56
929.341	1057.55
929.517	1165.69
929.693	1230.61
929.87	585.7
930.046	1266.24
930.222	1013.93
930.398	647.35
930.574	926.48
930.751	1035.03
930.927	1009.63
931.103	780.46
931.279	827.57
931.455	870.98
931.631	1175.93
931.807	578.12
931.983	574.44
932.159	719.43
932.335	1084.38
932.511	759.16
932.687	728.45
932.863	1079.88
933.039	1107.73
933.215	580.38
933.391	537.17
933.566	1017.21
933.742	1074.96
933.918	712.88
934.094	529.79
934.27	1052.43
934.445	991.81
934.621	873.44
934.797	637.52
934.973	1198.04
935.148	998.98
935.324	569.32
935.5	382.34
935.675	1243.51
935.851	1131.69
936.027	784.56
936.202	744.01
936.378	1201.73
936.553	966.42
936.729	1269.11
936.904	690.97
937.08	769.81
937.255	820.6
937.431	681.55
937.606	563.38
937.782	886.34
937.957	1087.04
938.133	766.13
938.308	669.26
938.483	1013.11
938.659	769.81
938.834	866.27
939.009	545.77
939.185	1007.38
939.36	769.81
939.535	301.85
939.71	848.25
939.886	1269.52
940.061	1035.85
940.236	937.95
940.411	722.92
940.586	1098.31
940.761	1113.26
940.937	767.56
941.112	577.71
941.287	927.92
941.462	941.02
941.637	504.6
941.812	716.36
941.987	961.91
942.162	876.92
942.337	764.9
942.512	627.69
942.687	1257.23
942.862	1074.96
943.037	423.71
943.212	293.46
943.386	790.7
943.561	932.42
943.736	817.12
943.911	1061.45
944.086	1113.67
944.26	941.64
944.435	617.24
944.61	765.72
944.785	1085.2
944.959	1397.31
945.134	685.23
945.309	498.87
945.483	655.13
945.658	1079.67
945.833	261.51
946.007	341.99
946.182	1258.46
946.357	616.01
946.531	496.62
946.706	509.52
946.88	450.54
947.055	934.27
947.229	495.39
947.404	418.59
947.578	976.45
947.752	769.61
947.927	360.22
948.101	323.36
948.276	1174.29
948.45	899.86
948.624	760.8
948.799	430.47
948.973	843.34
949.147	510.34
949.321	493.34
949.496	521.6
949.67	1136.61
949.844	674.79
950.018	511.36
950.193	457.09
950.367	1327.48
950.541	706.33
950.715	571.78
950.889	627.89
951.063	683.19
951.237	939.59
951.411	247.99
951.585	313.12
951.759	896.38
951.933	758.96
952.107	357.76
952.281	611.71
952.455	1114.49
952.629	899.25
952.803	416.54
952.977	390.94
953.151	913.79
953.325	718.62
953.499	565.02
953.672	206.42
953.846	494.16
954.02	650.42
954.194	319.26
954.368	336.46
954.541	903.75
954.715	582.83
954.889	467.33
955.062	249.22
955.236	592.87
955.41	608.23
955.583	621.13
955.757	201.91
955.93	604.54
956.104	365.34
956.278	331.14
956.451	389.92
956.625	802.99
956.798	1086.64
956.972	661.07
957.145	262.12
957.319	793.16
957.492	644.07
957.665	573.41
957.839	226.69
958.012	739.09
958.185	483.92
958.359	386.84
958.532	605.16
958.705	775.75
958.879	694.04
959.052	431.29
959.225	121.02
959.398	635.47
959.572	703.66
959.745	281.37
959.918	342.81
960.091	568.5
960.264	793.98
960.438	202.73
960.611	214
960.784	848.46
960.957	452.38
961.13	771.25
961.303	229.97
961.476	580.17
961.649	936.72
961.822	200.89
961.995	442.34
962.168	631.78
962.341	699.77
962.514	301.85
962.686	248.4
962.859	646.12
963.032	749.54
963.205	287.93
963.378	55.89
963.551	657.18
963.723	469.17
963.896	429.44
964.069	490.06
964.242	615.19
964.414	906.82
964.587	358.38
964.76	428.83
964.932	647.55
965.105	564.4
965.278	263.56
965.45	213.18
965.623	628.71
965.795	739.5
965.968	276.46
966.14	223.01
966.313	520.99
966.485	613.55
966.658	255.98
966.83	198.02
967.003	773.91
967.175	715.13
967.348	232.43
967.52	275.23
967.692	1029.7
967.865	768.18
968.037	262.33
968.209	557.24
968.382	591.03
968.554	779.64
968.726	278.92
968.898	145.59
969.071	667.42
969.243	668.03
969.415	301.44
969.587	385.62
969.759	1013.73
969.932	651.85
970.104	316.19
970.276	-55.52
970.448	413.26
970.62	434.15
970.792	396.06
970.964	322.54
971.136	989.56
971.308	630.14
971.48	119.58
971.652	188.4
971.824	887.78
971.996	459.75
972.168	269.29
972.339	328.89
972.511	690.76
972.683	533.27
972.855	537.78
973.027	178.16
973.199	601.68
973.37	723.74
973.542	388.89
973.714	463.85
973.886	418.18
974.057	712.06
974.229	170.17
974.401	177.34
974.572	344.86
974.744	111.8
974.915	102.18
975.087	160.34
975.259	897.4
975.43	353.26
975.602	164.43
975.773	90.09
975.945	324.18
976.116	681.96
976.288	100.95
976.459	419.61
976.63	360.43
976.802	574.44
976.973	103.61
977.145	391.76
977.316	1040.97
977.487	600.45
977.659	344.25
977.83	247.38
978.001	919.93
978.172	598.81
978.344	116.51
978.515	210.31
978.686	385
978.857	873.24
979.028	186.55
979.2	91.94
979.371	827.98
979.542	447.87
979.713	345.48
979.884	-211.57
980.055	308.41
980.226	426.78
980.397	130.03
980.568	65.93
980.739	706.53
980.91	367.59
981.081	371.48
981.252	109.34
981.423	513.2
981.594	604.95
981.765	46.27
981.936	315.57
982.106	454.84
982.277	745.44
982.448	83.54
982.619	369.44
982.79	272.98
982.96	630.14
983.131	284.24
983.302	-115.11
983.472	366.36
983.643	532.45
983.814	260.89
983.984	130.23
984.155	386.64
984.326	638.74
984.496	260.07
984.667	170.37
984.837	207.44
985.008	797.46
985.178	477.36
985.349	139.45
985.519	399.13
985.69	186.14
985.86	178.98
986.031	83.13
986.201	509.11
986.371	548.22
986.542	-21.11
986.712	-97.71
986.882	497.84
987.053	524.67
987.223	8.58
987.393	355.72
987.563	291
987.734	583.86
987.904	493.75
988.074	18.01
988.244	438.45
988.414	291.2
988.585	52.62
988.755	240.62
988.925	389.1
989.095	814.87
989.265	-7.39
989.435	192.49
989.605	578.74
989.775	574.03
989.945	418.59
990.115	-88.69
990.285	385.62
990.455	461.39
990.625	190.44
990.795	1.62
990.965	750.56
991.134	207.44
991.304	-5.55
991.474	0.39
991.644	457.29
991.814	763.67
991.984	-139.89
992.153	-20.09
992.323	302.06
992.493	419.41
992.662	-144.19
992.832	255.77
993.002	326.84
993.171	479
993.341	-206.66
993.511	47.5
993.68	207.85
993.85	513.82
994.019	-108.35
994.189	-128.22
994.358	349.78
994.528	233.45
994.697	-262.16
994.867	-110.61
995.036	536.76
995.206	248.2
995.375	-73.74
995.544	232.43
995.714	517.1
995.883	287.11
996.052	229.77
996.222	-298.82
996.391	761.21
996.56	388.89
996.73	-74.77
996.899	-144.81
997.068	718
997.237	361.65
997.406	-99.14
997.576	-45.07
997.745	462.21
997.914	352.64
998.083	-299.43
998.252	-42.21
998.421	373.74
998.59	141.29
998.759	-141.53
998.928	-242.09
999.097	632.81
999.266	398.52
999.435	156.86
999.604	-287.96
999.773	725.17
999.942	237.96
1000.111	-270.96
1000.28	-265.02
1000.448	70.64
1000.617	59.58
1000.786	142.11
1000.955	-254.37
1001.124	443.57
1001.292	962.12
1001.461	-119
1001.63	-195.19
1001.798	611.3
1001.967	582.22
1002.136	-230
1002.304	-184.54
1002.473	323.77
1002.642	306.15
1002.81	-54.08
1002.979	-41.39
1003.147	511.57
1003.316	766.54
1003.484	-122.28
1003.653	-156.48
1003.821	516.48
1003.99	217.68
1004.158	63.47
1004.327	7.36
1004.495	412.44
1004.663	149.48
1004.832	74.12
1005	-268.92
1005.168	412.03
1005.337	256.18
1005.505	-330.56
1005.673	127.57
1005.842	446.85
1006.01	306.36
1006.178	-236.76
1006.346	-152.8
1006.514	375.17
1006.683	681.55
1006.851	-124.12
1007.019	-16.61
1007.187	37.05
1007.355	-207.27
1007.523	-348.79
1007.691	-296.56
1007.859	-76.61
1008.027	665.37
1008.195	-183.31
1008.363	-301.68
1008.531	330.93
1008.699	177.34
1008.867	-341.21
1009.035	-195.8
1009.203	604.75
1009.37	259.05
1009.538	-133.14
1009.706	406.71
1009.874	275.64
1010.042	236.93
1010.209	-291.44
1010.377	-261.34
1010.545	432.31
1010.713	289.98
1010.88	-220.17
1011.048	-154.64
1011.216	153.79
1011.383	559.49
1011.551	-209.93
1011.718	-276.29
1011.886	456.27
1012.054	291.2
1012.221	-289.19
1012.389	-269.94
1012.556	203.35
1012.724	636.49
1012.891	-99.75
1013.058	-439.92
1013.226	402.61
1013.393	403.64
1013.561	-353.29
1013.728	-385.65
1013.895	493.13
1014.063	360.22
1014.23	-363.33
1014.397	-214.64
1014.565	475.73
1014.732	162.59
1014.899	-302.71
1015.066	-297.59
1015.233	298.37
1015.401	424.94
1015.568	-141.94
1015.735	-29.71
1015.902	320.29
1016.069	538.39
1016.236	-187.41
1016.403	-337.52
1016.57	-27.87
1016.737	547.2
1016.904	-174.5
1017.071	-319.7
1017.238	45.86
1017.405	389.1
1017.572	-184.13
1017.739	39.3
1017.906	432.72
1018.073	511.57
1018.24	-308.24
1018.407	-118.39
1018.573	465.49
1018.74	192.7
1018.907	-172.05
1019.074	-421.28
1019.241	456.48
1019.407	243.49
1019.574	-294.51
1019.741	-327.08
1019.907	381.31
1020.074	602.9
1020.241	-510.99
1020.407	-355.54
1020.574	267.86
1020.74	302.88
1020.907	-250.28
1021.073	-310.08
1021.24	801.76
1021.406	499.48
1021.573	-343.26
1021.739	-275.67
1021.906	502.35
1022.072	201.3
1022.239	-206.86
1022.405	-135.18
1022.571	274.41
1022.738	72.69
1022.904	-227.14
1023.07	-118.8
1023.237	236.52
1023.403	510.54
1023.569	-186.38
1023.735	-183.11
1023.902	309.84
1024.068	299.4
1024.234	-350.42
1024.4	-253.15
1024.566	231.2
1024.732	365.95
1024.898	-224.88
1025.065	-448.93
1025.231	320.08
1025.397	102.79
1025.563	-217.1
1025.729	-325.23
1025.895	-265.64
1026.061	-30.12
1026.227	-451.39
1026.392	-215.46
1026.558	434.36
1026.724	375.38
1026.89	-285.3
1027.056	-151.57
1027.222	254.55
1027.388	148.05
1027.553	-219.76
1027.719	-334.04
1027.885	617.24
1028.051	310.05
1028.216	-485.8
1028.382	-217.72
1028.548	375.38
1028.713	130.03
1028.879	-405.72
1029.045	-89.72
1029.21	544.33
1029.376	449.51
1029.541	-209.93
1029.707	-243.93
1029.873	369.64
1030.038	444.6
1030.204	-303.12
1030.369	-235.33
1030.534	380.29
1030.7	88.66
1030.865	-176.76
1031.031	-331.17
1031.196	286.08
1031.361	275.23
1031.527	-303.53
1031.692	-287.55
1031.857	-174.3
1032.023	371.28
1032.188	-329.33
1032.353	-278.95
1032.518	508.49
1032.684	215.63
1032.849	-419.65
1033.014	-200.31
1033.179	300.83
1033.344	295.3
1033.509	-149.11
1033.674	-257.65
1033.839	387.25
1034.004	377.42
1034.17	-251.51
1034.335	-407.77
1034.5	100.74
1034.664	96.65
1034.829	-311.72
1034.994	-184.54
1035.159	157.27
1035.324	260.89
1035.489	-247.62
1035.654	-302.3
1035.819	622.36
1035.984	283.22
1036.148	-212.8
1036.313	-241.88
1036.478	443.98
1036.643	182.87
1036.807	-282.43
1036.972	-333.43
1037.137	622.57
1037.301	196.59
1037.466	-481.7
1037.631	-155.87
1037.795	427.39
1037.96	243.08
1038.124	-26.64
1038.289	-367.01
1038.454	319.06
1038.618	355.92
1038.783	-197.85
1038.947	-131.5
1039.111	182.87
1039.276	125.52
1039.44	-307.42
1039.605	270.31
1039.769	147.64
1039.933	154.81
1040.098	-195.39
1040.262	-20.29
1040.426	414.49
1040.591	345.27
1040.755	-312.13
1040.919	-187
1041.083	416.54
1041.248	126.55
1041.412	-463.06
1041.576	-321.14
1041.74	144.57
1041.904	341.17
1042.068	-310.08
1042.232	-205.63
1042.397	484.94
1042.561	304.72
1042.725	-510.58
1042.889	-45.07
1043.053	347.73
1043.217	276.87
1043.381	-160.58
1043.544	-427.84
1043.708	414.9
1043.872	-30.74
1044.036	-497.88
1044.2	-423.74
1044.364	454.84
1044.528	514.23
1044.691	2844.2
1044.855	-367.01
1045.019	394.01
1045.183	375.17
1045.346	-205.43
1045.51	-380.32
1045.674	354.9
1045.837	345.88
1046.001	-246.8
1046.165	-263.8
1046.328	749.95
1046.492	256.39
1046.655	-42.82
1046.819	-174.3
1046.983	113.65
1047.146	238.78
1047.31	-152.59
1047.473	-454.26
1047.636	217.07
1047.8	7.56
1047.963	-199.69
1048.127	-328.31
1048.29	47.5
